##NAMES=Hematite
##RRUFFID=R040024
##IDEAL CHEMISTRY=Fe^3+^_2_O_3_
##LOCALITY=near Covered Wells, Papago Indian Reservation, Arizona, USA
##OWNER=RRUFF
##SOURCE=University of Arizona Mineral Museum
##DESCRIPTION=Reddish-black foliatated mass
##STATUS=The identification of this mineral has been confirmed by X-ray diffraction and chemical analysis
##URL=rruff.info/R040024
##MEASURED CHEMISTRY=(Fe_1.99_Al_0.01_)_Î£=2_O_3_
150.4216, 328.1039
152.3501, 327.4706
154.2786, 326.2745
156.2070, 327.1497
158.1355, 327.0419
160.0640, 322.8915
161.9924, 317.6237
163.9209, 317.3803
165.8494, 322.8259
167.7778, 324.8680
169.7063, 322.5276
171.6348, 318.0625
173.5632, 310.4418
175.4917, 302.6947
177.4202, 297.6391
179.3486, 294.9886
181.2771, 291.7627
183.2056, 287.6368
185.1340, 284.4732
187.0625, 282.7792
188.9910, 282.1743
190.9194, 281.8108
192.8479, 282.5673
194.7764, 287.2822
196.7048, 296.1528
198.6333, 302.1172
200.5618, 302.8138
202.4902, 304.9200
204.4187, 309.8974
206.3472, 318.1340
208.2757, 326.7322
210.2041, 338.3994
212.1326, 361.4806
214.0611, 391.1692
215.9895, 462.5759
217.9180, 619.6555
219.8465, 765.4052
221.7749, 886.2408
223.7034, 956.8068
225.6319, 919.5795
227.5603, 779.5905
229.4888, 656.3340
231.4173, 543.1498
233.3457, 481.5602
235.2742, 501.8037
237.2027, 562.8128
239.1311, 682.4329
241.0596, 819.3370
242.9881, 883.4493
244.9165, 878.2688
246.8450, 816.1555
248.7735, 668.6134
250.7019, 539.3690
252.6304, 461.5766
254.5589, 414.0992
256.4873, 391.2628
258.4158, 387.4901
260.3442, 386.0453
262.2727, 386.6313
264.2012, 394.8421
266.1296, 412.8230
268.0581, 436.1707
269.9866, 457.6054
271.9150, 488.4473
273.8435, 529.1780
275.7720, 588.1222
277.7004, 671.7192
279.6289, 774.7884
281.5574, 995.7170
283.4858, 1377.538
285.4143, 1834.123
287.3428, 2463.167
289.2712, 3032.373
291.1997, 3376.317
293.1282, 3495.265
295.0566, 3398.703
296.9851, 3087.399
298.9136, 2679.138
300.8420, 2113.681
302.7705, 1611.523
304.6990, 1224.773
306.6274, 930.5268
308.5559, 732.9794
310.4844, 613.2354
312.4128, 526.5975
314.3413, 471.6695
316.2698, 430.1207
318.1982, 403.1400
320.1267, 381.5106
322.0552, 361.4558
323.9836, 346.8604
325.9121, 343.5508
327.8406, 345.8530
329.7691, 342.9991
331.6975, 335.9078
333.6260, 330.2671
335.5545, 326.5073
337.4829, 324.5471
339.4114, 324.9850
341.3399, 326.4603
343.2683, 330.0854
345.1968, 333.3672
347.1253, 330.6385
349.0537, 324.9335
350.9822, 327.6535
352.9107, 340.4491
354.8391, 351.5377
356.7676, 357.0593
358.6961, 363.0651
360.6245, 370.4379
362.5530, 379.3972
364.4815, 389.4217
366.4099, 401.5662
368.3384, 419.1091
370.2669, 441.3573
372.1953, 459.3508
374.1238, 468.5410
376.0523, 483.5116
377.9807, 508.6012
379.9092, 537.4781
381.8377, 562.9007
383.7661, 594.3356
385.6946, 639.3091
387.6231, 699.6964
389.5515, 774.3237
391.4800, 860.8387
393.4085, 999.5643
395.3369, 1167.574
397.2654, 1446.357
399.1939, 1825.669
401.1223, 2343.237
403.0508, 3150.181
404.9793, 4021.390
406.9077, 4778.932
408.8362, 5347.472
410.7647, 5393.403
412.6931, 4839.381
414.6216, 4168.037
416.5501, 3278.197
418.4785, 2516.219
420.4070, 1942.234
422.3355, 1503.109
424.2639, 1201.387
426.1924, 996.5118
428.1209, 846.4895
430.0493, 743.2748
431.9778, 663.9117
433.9063, 609.5981
435.8347, 566.3171
437.7632, 538.9786
439.6917, 513.4401
441.6201, 484.8079
443.5486, 461.0782
445.4771, 450.6602
447.4055, 444.3737
449.3340, 429.9369
451.2625, 411.4443
453.1909, 400.6032
455.1194, 398.5083
457.0479, 396.3991
458.9763, 394.3072
460.9048, 390.8868
462.8333, 383.5335
464.7617, 378.2265
466.6902, 375.9400
468.6187, 378.0610
470.5471, 387.0174
472.4756, 400.7884
474.4041, 416.1373
476.3326, 433.1303
478.2610, 453.8230
480.1895, 477.3056
482.1180, 507.2693
484.0464, 543.8122
485.9749, 586.1287
487.9034, 641.1996
489.8318, 693.6685
491.7603, 745.1081
493.6888, 780.3668
495.6172, 784.9156
497.5457, 762.6855
499.4742, 721.9417
501.4026, 661.3016
503.3311, 598.0313
505.2596, 523.0011
507.1880, 462.9836
509.1165, 422.7300
511.0450, 391.0382
512.9734, 365.1267
514.9019, 346.7684
516.8303, 340.7878
518.7588, 340.2438
520.6873, 339.5570
522.6157, 337.8415
524.5442, 330.5287
526.4727, 315.9206
528.4011, 309.3833
530.3296, 317.2401
532.2581, 321.8075
534.1865, 321.5300
536.1150, 320.4116
538.0435, 317.0959
539.9719, 316.1805
541.9004, 321.8481
543.8289, 329.7095
545.7573, 336.4400
547.6858, 342.0403
549.6143, 346.1245
551.5427, 348.7433
553.4712, 352.1780
555.3997, 355.7757
557.3281, 362.5452
559.2566, 374.6535
561.1851, 385.1446
563.1135, 392.9757
565.0420, 398.8517
566.9705, 400.4100
568.8989, 403.3860
570.8274, 411.7872
572.7559, 423.7093
574.6843, 438.1493
576.6129, 454.1702
578.5413, 468.5323
580.4698, 481.1171
582.3983, 494.2937
584.3267, 504.5400
586.2552, 527.2507
588.1837, 563.7723
590.1121, 609.3636
592.0406, 655.4189
593.9691, 724.3641
595.8975, 818.1268
597.8260, 948.9556
599.7545, 1123.953
601.6829, 1338.405
603.6114, 1615.735
605.5399, 1919.578
607.4683, 2188.497
609.3968, 2414.935
611.3253, 2474.647
613.2537, 2345.883
615.1822, 2129.274
617.1107, 1793.303
619.0391, 1487.055
620.9676, 1226.531
622.8961, 1015.505
624.8245, 865.3003
626.7530, 747.6090
628.6815, 652.6551
630.6099, 580.0599
632.5384, 538.0396
634.4669, 512.3231
636.3953, 486.6487
638.3238, 461.7846
640.2523, 439.2897
642.1807, 419.3600
644.1092, 405.4607
646.0377, 398.0274
647.9661, 391.1986
649.8946, 384.9656
651.8231, 378.2247
653.7515, 370.4705
655.6800, 363.1621
657.6085, 356.8165
659.5369, 350.7830
661.4654, 345.4697
663.3939, 339.5041
665.3223, 332.5197
667.2508, 324.1800
669.1793, 313.1673
671.1077, 301.2368
673.0362, 290.3075
674.9647, 281.0626
676.8931, 277.3203
678.8216, 278.5580
680.7501, 275.1958
682.6785, 267.0524
684.6070, 260.6342
686.5355, 256.4856
688.4639, 253.8135
690.3924, 253.0732
692.3209, 251.7486
694.2493, 248.9027
696.1778, 245.8790
698.1063, 242.8873
700.0347, 240.2498
701.9632, 238.5632
703.8917, 236.7600
705.8201, 233.9431
707.7486, 230.6173
709.6771, 227.2753
711.6055, 223.9091
713.5340, 220.0818
715.4625, 216.2697
717.3909, 214.3048
719.3194, 214.0242
721.2479, 215.2013
723.1763, 217.7110
725.1048, 216.7628
727.0333, 211.5753
728.9617, 207.2707
730.8902, 204.0918
732.8187, 204.2026
734.7471, 210.0721
736.6756, 214.7032
738.6041, 216.0666
740.5325, 215.8656
742.4610, 213.4219
744.3895, 211.1406
746.3179, 210.2172
748.2464, 209.9859
750.1749, 210.0110
752.1033, 210.4109
754.0318, 212.2618
755.9603, 213.8973
757.8887, 212.1495
759.8172, 208.3592
761.7457, 204.7921
763.6741, 202.0348
765.6026, 203.0325
767.5311, 206.9672
769.4595, 208.3769
771.3880, 207.1697
773.3165, 207.2732
775.2449, 209.2164
777.1734, 210.0844
779.1019, 209.6107
781.0303, 207.5003
782.9588, 201.4315
784.8873, 199.2416
786.8157, 207.0258
788.7442, 211.1199
790.6727, 204.8537
792.6011, 200.8052
794.5296, 204.1408
796.4581, 208.9474
798.3865, 214.0249
800.3150, 217.7053
802.2435, 217.4516
804.1719, 216.9996
806.1004, 221.1055
808.0289, 224.9696
809.9573, 221.2388
811.8858, 215.9580
813.8143, 218.7750
815.7427, 224.8080
817.6712, 224.9946
819.5997, 222.4645
821.5281, 226.0820
823.4566, 232.6221
825.3851, 229.4350
827.3135, 218.5142
829.2420, 213.7510
831.1705, 215.1094
833.0989, 213.7211
835.0274, 209.0415
836.9559, 204.0535
838.8843, 197.9714
840.8128, 197.3302
842.7413, 205.6752
844.6697, 209.2027
846.5982, 204.6702
848.5267, 200.6006
850.4551, 196.9658
852.3836, 194.6754
854.3121, 194.1711
856.2405, 194.3835
858.1690, 195.2150
860.0975, 196.6773
862.0259, 201.3043
863.9544, 202.5390
865.8829, 193.7423
867.8113, 188.2807
869.7398, 195.4968
871.6683, 201.1995
873.5967, 196.7520
875.5252, 191.4947
877.4537, 189.9387
879.3821, 190.2167
881.3106, 192.2435
883.2391, 194.2486
885.1675, 195.7134
887.0960, 195.6531
889.0245, 191.5942
890.9529, 187.3886
892.8814, 187.8088
894.8099, 188.8080
896.7383, 184.7103
898.6668, 180.0338
900.5953, 180.9613
902.5237, 184.4578
904.4522, 186.1310
906.3807, 187.1834
908.3091, 190.5244
910.2376, 194.3050
912.1661, 194.8267
914.0945, 192.7432
916.0230, 188.4984
917.9515, 183.4188
919.8799, 181.6560
921.8084, 182.3400
923.7369, 182.7600
925.6653, 182.8455
927.5938, 182.0367
929.5223, 180.5786
931.4507, 179.8472
933.3792, 179.6918
935.3077, 178.7991
937.2361, 177.3512
939.1646, 176.9342
941.0931, 177.5407
943.0215, 179.8599
944.9500, 183.6474
946.8785, 183.3312
948.8069, 179.0881
950.7354, 179.2338
952.6639, 183.7241
954.5923, 186.0177
956.5208, 186.1176
958.4493, 182.9340
960.3777, 176.3275
962.3062, 173.7210
964.2347, 175.2558
966.1631, 177.6306
968.0916, 181.0178
970.0201, 180.4342
971.9485, 175.6179
973.8770, 175.0308
975.8055, 178.9122
977.7339, 180.0214
979.6624, 178.2096
981.5909, 175.7483
983.5193, 172.6633
985.4478, 170.8638
987.3763, 170.4011
989.3047, 172.1901
991.2332, 176.1962
993.1617, 176.4777
995.0901, 173.0041
997.0186, 173.0520
998.9471, 176.6968
1000.876, 179.8220
1002.804, 182.2238
1004.732, 182.1660
1006.661, 179.7689
1008.589, 176.9998
1010.518, 174.2421
1012.446, 176.7740
1014.375, 183.8540
1016.303, 184.9755
1018.232, 180.8564
1020.160, 180.7452
1022.089, 184.2993
1024.017, 187.2558
1025.946, 189.7900
1027.874, 193.9904
1029.802, 199.4528
1031.731, 204.2295
1033.659, 207.9760
1035.588, 208.6475
1037.516, 206.9493
1039.445, 204.6711
1041.373, 202.9190
1043.302, 206.3888
1045.230, 213.4500
1047.159, 221.3787
1049.087, 227.8661
1051.016, 224.8539
1052.944, 216.6997
1054.873, 212.5734
1056.801, 211.3864
1058.729, 212.2520
1060.658, 213.4929
1062.586, 210.8183
1064.515, 207.5970
1066.443, 209.5382
1068.372, 213.8513
1070.300, 218.6073
1072.229, 221.4831
1074.157, 217.7855
1076.086, 212.7749
1078.014, 211.6830
1079.943, 212.5256
1081.871, 215.7726
1083.800, 217.1378
1085.728, 210.0728
1087.657, 203.9122
1089.585, 206.3987
1091.514, 210.3689
1093.442, 212.5002
1095.370, 213.3600
1097.299, 211.4795
1099.227, 211.2214
1101.156, 217.2476
1103.084, 220.5444
1105.013, 216.6535
1106.941, 211.9913
1108.870, 207.1021
1110.798, 203.6097
1112.727, 201.1132
1114.655, 201.3434
1116.584, 208.5787
1118.512, 210.1716
1120.441, 202.1678
1122.369, 197.2714
1124.297, 197.1050
1126.226, 196.0581
1128.154, 193.7330
1130.083, 191.7957
1132.011, 190.1491
1133.940, 190.9299
1135.868, 194.0996
1137.797, 196.6419
1139.725, 198.4690
1141.654, 198.7819
1143.582, 198.0432
1145.511, 198.6282
1147.439, 199.6064
1149.368, 197.3740
1151.296, 194.6510
1153.224, 198.0312
1155.153, 202.3903
1157.081, 199.9490
1159.010, 196.1891
1160.938, 195.9579
1162.867, 197.1393
1164.795, 198.9557
1166.724, 200.3527
1168.652, 201.1161
1170.581, 200.2627
1172.509, 194.4510
1174.438, 193.5999
1176.366, 204.7869
1178.295, 212.2609
1180.223, 210.8763
1182.151, 208.0552
1184.080, 203.5563
1186.008, 204.3943
1187.937, 213.4881
1189.865, 216.7161
1191.794, 212.3697
1193.722, 211.8095
1195.651, 214.9332
1197.579, 215.0498
1199.508, 212.8926
1201.436, 212.7821
1203.365, 214.2642
1205.293, 216.1070
1207.222, 218.3988
1209.150, 223.0116
1211.078, 226.3592
1213.007, 221.3693
1214.935, 216.1145
1216.864, 217.2119
1218.792, 221.3726
1220.721, 230.3518
1222.649, 234.7338
1224.578, 227.9673
1226.506, 223.6250
1228.435, 226.6190
1230.363, 228.7363
1232.292, 227.8296
1234.220, 229.1454
1236.149, 233.5482
1238.077, 237.8881
1240.005, 241.9021
1241.934, 245.2538
1243.862, 248.0222
1245.791, 251.2963
1247.719, 254.3313
1249.648, 252.6400
1251.576, 250.9942
1253.505, 260.1455
1255.433, 271.9255
1257.362, 277.6038
1259.290, 280.5869
1261.219, 282.2331
1263.147, 283.9816
1265.076, 286.5760
1267.004, 289.1438
1268.932, 290.4812
1270.861, 294.9848
1272.789, 303.8479
1274.718, 314.1440
1276.646, 325.5973
1278.575, 329.8230
1280.503, 327.6535
1282.432, 330.4748
1284.360, 337.6867
1286.289, 346.4930
1288.217, 355.5674
1290.146, 361.8004
1292.074, 367.4641
1294.003, 375.6171
1295.931, 384.0305
1297.859, 388.0616
1299.788, 396.4805
1301.716, 417.6868
1303.645, 436.3326
1305.573, 449.1449
1307.502, 458.3512
1309.430, 463.5523
1311.359, 469.4904
1313.287, 476.4179
1315.216, 483.0833
1317.144, 488.4148
1319.073, 488.0154
1321.001, 482.8854
1322.930, 472.8121
1324.858, 462.5219
1326.786, 461.6026
1328.715, 457.1873
1330.643, 437.1491
1332.572, 414.6707
1334.500, 390.2289
1336.429, 374.6726
1338.357, 379.2638
1340.286, 371.9234
1342.214, 348.0406
1344.143, 334.6559
1346.071, 331.1645
1348.000, 318.1732
1349.928, 300.1962
1351.857, 292.6723
1353.785, 288.8891
1355.714, 279.4669
1357.642, 269.4636
1359.570, 262.5128
1361.499, 256.9479
1363.427, 252.1999
1365.356, 248.3396
1367.284, 246.5154
1369.213, 242.4350
1371.141, 234.7484
1373.070, 231.6825
1374.998, 232.6863
1376.927, 231.2656
1378.855, 228.3084
1380.784, 227.0974
1382.712, 224.6328
1384.641, 215.7246
1386.569, 207.0337
1388.497, 201.4360
1390.426, 199.8543
1392.354, 204.0271
1394.283, 207.9464
1396.211, 211.5383
1398.140, 208.7878
1400.068, 199.8050
1401.997, 191.4885
1403.925, 185.3725
1405.854, 188.8391
1407.782, 195.1332
1409.711, 194.6013
1411.639, 193.2608
1413.568, 195.6985
1415.496, 195.9579
1417.424, 190.8587
1419.353, 188.0979
1421.281, 189.1951
1423.210, 192.2987
1425.138, 196.9252
1427.067, 199.5246
1428.995, 199.5064
1430.924, 192.5753
1432.852, 185.3947
1434.781, 186.8488
1436.709, 189.6459
1438.638, 190.3326
1440.566, 190.8228
1442.495, 191.5725
1444.423, 192.7314
1446.351, 194.2661
1448.280, 191.6199
1450.208, 186.5998
1452.137, 188.0037
1454.065, 192.0892
1455.994, 193.7469
1457.922, 193.7004
1459.851, 190.5008
1461.779, 189.5642
1463.708, 193.1010
1465.636, 196.5358
1467.565, 199.2341
1469.493, 200.3268
1471.422, 199.3398
1473.350, 192.4567
1475.278, 184.3239
1477.207, 184.4760
1479.135, 185.5947
1481.064, 179.0476
1482.992, 176.1677
1484.921, 182.6842
1486.849, 187.1599
1488.778, 188.2465
1490.706, 187.4379
1492.635, 185.6241
1494.563, 186.8301
1496.492, 188.9082
1498.420, 188.6642
1500.349, 187.4355
1502.277, 185.9911
1504.205, 184.3039
1506.134, 181.9357
1508.062, 180.1899
1509.991, 179.1605
1511.919, 185.1935
1513.848, 194.0493
1515.776, 189.7477
1517.705, 181.4735
1519.633, 178.7347
1521.562, 178.1068
1523.490, 177.3300
1525.419, 179.2502
1527.347, 186.0344
1529.276, 187.9159
1531.204, 185.2777
1533.132, 183.8953
1535.061, 183.8909
1536.989, 187.7791
1538.918, 189.2189
1540.846, 180.9335
1542.775, 173.4546
1544.703, 169.6285
1546.632, 169.3203
1548.560, 172.7667
1550.489, 174.1010
1552.417, 173.8097
1554.346, 172.6817
1556.274, 171.6150
1558.203, 171.3061
1560.131, 171.6001
1562.059, 173.2824
1563.988, 172.5585
1565.916, 168.3516
1567.845, 168.8101
1569.773, 171.8268
1571.702, 169.7725
1573.630, 165.2520
1575.559, 159.6267
1577.487, 155.5601
1579.416, 154.6762
1581.344, 153.4854
1583.273, 151.3355
1585.201, 149.1382
1587.130, 147.2643
1589.058, 147.8000
1590.986, 148.3717
1592.915, 144.9993
1594.843, 144.3313
1596.772, 150.2943
1598.700, 150.9370
1600.629, 144.2198
1602.557, 143.0405
1604.486, 145.0399
1606.414, 142.9176
1608.343, 140.3343
1610.271, 141.1940
1612.200, 141.3363
1614.128, 139.2849
1616.057, 138.9344
1617.985, 140.6331
1619.913, 142.7092
1621.842, 144.4394
1623.770, 144.2527
1625.699, 143.4051
1627.627, 142.7257
1629.556, 141.9198
1631.484, 141.0679
1633.413, 136.1515
1635.341, 128.7703
1637.270, 127.7847
1639.198, 129.5202
1641.127, 128.6908
1643.055, 130.0396
1644.984, 136.3886
1646.912, 141.9023
1648.840, 145.5603
1650.769, 139.8126
1652.697, 131.0806
1654.626, 134.9342
1656.554, 140.1146
1658.483, 136.3404
1660.411, 135.2621
1662.340, 139.4858
1664.268, 139.0702
1666.197, 135.6168
1668.125, 139.4048
1670.054, 143.0117
1671.982, 135.6876
1673.911, 130.2155
1675.839, 132.3324
1677.767, 133.8377
1679.696, 134.3696
1681.624, 135.2323
1683.553, 135.7144
1685.481, 133.8891
1687.410, 132.7553
1689.338, 135.0256
1691.267, 135.7781
1693.195, 134.5677
1695.124, 133.2442
1697.052, 131.9730
1698.981, 130.2226
1700.909, 129.9445
1702.838, 134.0342
1704.766, 136.2824
1706.694, 135.3732
1708.623, 134.4789
1710.551, 133.9531
1712.480, 136.3935
1714.408, 137.2256
1716.337, 130.9138
1718.265, 128.1812
1720.194, 132.8603
1722.122, 134.5406
1724.051, 134.4755
1725.979, 138.7413
1727.908, 140.5533
1729.836, 132.6183
1731.765, 128.0067
1733.693, 131.0704
1735.621, 132.2067
1737.550, 132.1451
1739.478, 135.0089
1741.407, 136.2406
1743.335, 130.8618
1745.264, 129.7111
1747.192, 136.2796
1749.121, 136.7805
1751.049, 133.1890
1752.978, 131.3685
1754.906, 130.7497
1756.835, 131.2467
1758.763, 131.6538
1760.692, 131.7292
1762.620, 128.1725
1764.548, 124.0177
1766.477, 127.8139
1768.405, 131.8362
1770.334, 131.7785
1772.262, 132.1843
1774.191, 133.5750
1776.119, 132.1506
1778.048, 129.5977
1779.976, 127.9358
1781.905, 128.5805
1783.833, 132.8257
1785.762, 133.6728
1787.690, 131.4625
1789.619, 135.1923
1791.547, 139.1125
1793.475, 134.8913
1795.404, 131.0655
1797.332, 129.5711
1799.261, 129.4306
1801.189, 130.3187
1803.118, 130.5996
1805.046, 131.0527
1806.975, 132.4503
1808.903, 135.0192
1810.832, 138.5806
1812.760, 136.1305
1814.689, 131.2750
1816.617, 131.3529
1818.546, 132.4384
1820.474, 130.9634
1822.402, 134.6700
1824.331, 142.0460
1826.259, 137.1457
1828.188, 130.3050
1830.116, 134.4118
1832.045, 136.3524
1833.973, 132.2635
1835.902, 128.4673
1837.830, 125.8777
1839.759, 124.1192
1841.687, 124.9066
1843.616, 132.0028
1845.544, 135.4958
1847.473, 135.3813
1849.401, 139.5212
1851.329, 141.6057
1853.258, 131.6220
1855.186, 126.4246
1857.115, 132.7435
1859.043, 133.3423
1860.972, 130.7055
1862.900, 131.6260
1864.829, 132.1355
1866.757, 130.6132
1868.686, 128.8415
1870.614, 126.8254
1872.543, 127.5902
1874.471, 129.4732
1876.400, 131.5635
1878.328, 129.7913
1880.256, 123.4515
1882.185, 122.7156
1884.113, 125.7651
1886.042, 132.2372
1887.970, 134.8382
1889.899, 130.5092
1891.827, 125.9330
1893.756, 123.0475
1895.684, 127.6665
1897.613, 132.0648
1899.541, 131.7588
1901.470, 130.3628
1903.398, 129.5101
1905.327, 131.9832
1907.255, 133.1409
1909.183, 129.7087
1911.112, 129.2626
1913.040, 131.7573
1914.969, 127.3938
1916.897, 122.7721
1918.826, 127.6520
1920.754, 130.6825
1922.683, 130.4278
1924.611, 130.8193
1926.540, 130.3653
1928.468, 125.6804
1930.397, 124.0884
1932.325, 128.0071
1934.254, 126.0970
1936.182, 121.6351
1938.110, 125.5990
1940.039, 129.3692
1941.967, 130.5411
1943.896, 125.6767
1945.824, 117.3231
1947.753, 117.9264
1949.681, 121.3591
1951.610, 123.0238
1953.538, 126.0181
1955.467, 130.2861
1957.395, 126.5750
1959.324, 122.1343
1961.252, 123.5543
1963.181, 125.1111
1965.109, 126.3579
1967.037, 126.9287
1968.966, 126.1574
1970.894, 121.4079
1972.823, 117.8081
1974.751, 117.0778
1976.680, 120.4074
1978.608, 124.0972
1980.537, 128.8397
1982.465, 128.4344
1984.394, 121.8740
1986.322, 119.9642
1988.251, 120.2133
1990.179, 121.2199
1992.108, 120.6804
1994.036, 117.4712
1995.964, 121.0017
1997.893, 125.5756
1999.821, 126.1860
2001.750, 125.2033
2003.678, 122.4361
2005.607, 119.0241
2007.535, 117.8899
2009.464, 123.9804
2011.392, 127.0080
2013.321, 124.3256
2015.249, 123.4799
2017.178, 124.0101
2019.106, 124.9035
2021.035, 121.6845
2022.963, 115.1810
2024.891, 114.9006
2026.820, 116.8443
2028.748, 116.7988
2030.677, 115.6663
2032.605, 115.2380
2034.534, 122.3726
2036.462, 126.9485
2038.391, 122.1126
2040.319, 123.6926
2042.248, 128.5698
2044.176, 120.5723
2046.105, 115.1637
2048.033, 118.4350
2049.961, 119.0914
2051.890, 118.0262
2053.818, 122.6564
2055.747, 124.3246
2057.676, 119.5514
2059.604, 118.9513
2061.532, 119.3444
2063.461, 115.6093
2065.389, 113.1134
2067.318, 112.1062
2069.246, 116.6807
2071.175, 120.9847
2073.103, 119.0047
2075.032, 118.5196
2076.960, 119.5216
2078.889, 119.3096
2080.817, 117.8955
2082.746, 115.0957
2084.674, 111.6760
2086.603, 109.1086
2088.531, 113.8221
2090.459, 118.8111
2092.388, 119.3990
2094.316, 119.2711
2096.245, 119.0250
2098.173, 118.6519
2100.102, 117.4041
2102.030, 114.5997
2103.959, 118.2743
2105.887, 121.6142
2107.816, 115.6069
2109.744, 113.7776
2111.673, 115.8304
2113.601, 116.4894
2115.530, 116.4116
2117.458, 114.1881
2119.386, 114.8134
2121.315, 117.0593
2123.243, 117.3538
2125.172, 116.2504
2127.100, 113.7424
2129.029, 112.5695
2130.957, 112.7423
2132.886, 116.2795
2134.814, 115.8301
2136.743, 110.7949
2138.671, 111.4523
2140.600, 112.7619
2142.528, 112.2522
2144.457, 109.3982
2146.385, 105.9357
2148.313, 108.6542
2150.242, 111.0088
2152.170, 111.0919
2154.099, 114.2774
2156.027, 116.4119
2157.956, 112.3545
2159.884, 110.8841
2161.813, 112.8604
2163.741, 116.1996
2165.670, 119.0212
2167.598, 120.4344
2169.527, 117.8615
2171.455, 114.0946
2173.384, 111.6077
2175.312, 112.0194
2177.240, 114.7272
2179.169, 112.9965
2181.097, 111.3425
2183.026, 112.7962
2184.954, 112.6238
2186.883, 111.2774
2188.811, 109.8776
2190.740, 109.2725
2192.668, 109.4830
2194.597, 109.1747
2196.525, 109.2048
2198.454, 110.5075
2200.382, 112.5361
2202.311, 113.7138
2204.239, 111.1632
2206.167, 109.0802
2208.096, 108.1932
2210.024, 110.1851
2211.953, 112.6033
2213.881, 113.8622
2215.810, 113.2993
2217.738, 111.0621
2219.667, 105.8269
2221.595, 104.9828
2223.524, 110.1561
2225.452, 111.9881
2227.381, 112.1072
2229.309, 112.3895
2231.238, 110.6903
2233.166, 108.3060
2235.094, 107.9085
2237.023, 108.7909
2238.951, 111.3523
2240.880, 109.0071
2242.808, 106.5446
2244.737, 107.8124
2246.665, 105.3605
2248.594, 102.9268
2250.522, 107.9719
2252.451, 106.9600
2254.379, 101.5161
2256.308, 107.5361
2258.236, 110.1876
2260.165, 103.7630
2262.093, 99.86903
2264.021, 100.2330
2265.950, 107.7144
2267.878, 111.9550
2269.807, 111.2778
2271.735, 106.5471
2273.664, 102.6693
2275.592, 101.5044
2277.521, 105.1381
2279.449, 107.4723
2281.378, 106.6838
2283.306, 107.5231
2285.235, 107.1690
2287.163, 104.3636
2289.092, 104.0848
2291.020, 105.5781
2292.948, 111.4310
2294.877, 113.3598
2296.805, 110.1958
2298.734, 110.9434
2300.662, 111.0724
2302.591, 106.9012
2304.519, 104.6156
2306.448, 105.6456
2308.376, 107.9554
2310.305, 106.4044
2312.233, 105.3952
2314.162, 109.4224
2316.090, 108.7277
2318.019, 104.7326
2319.947, 106.0106
2321.875, 106.1131
2323.804, 103.7959
2325.732, 105.3331
2327.661, 107.6490
2329.589, 105.2790
2331.518, 103.7549
2333.446, 105.6796
2335.375, 110.4191
2337.303, 109.1752
2339.232, 102.3051
2341.160, 101.9868
2343.089, 104.1059
2345.017, 103.7474
2346.946, 104.1577
2348.874, 104.5917
2350.802, 106.0583
2352.731, 107.3212
2354.659, 106.4398
2356.588, 105.7667
2358.516, 106.3227
2360.445, 109.2047
2362.373, 108.6731
2364.302, 106.9191
2366.230, 105.6460
2368.159, 103.1939
2370.087, 104.3640
2372.016, 106.1230
2373.944, 104.2444
2375.873, 104.7925
2377.801, 108.4492
2379.729, 111.4456
2381.658, 111.5972
2383.586, 108.5974
2385.515, 106.7216
2387.443, 104.8591
2389.372, 108.0134
2391.300, 109.8096
2393.229, 107.4171
2395.157, 104.6177
2397.086, 104.2780
2399.014, 106.1668
2400.943, 105.3458
2402.871, 104.7280
2404.800, 105.8021
2406.728, 108.6166
2408.656, 108.9904
2410.585, 104.0621
2412.513, 105.8218
2414.442, 110.0962
2416.370, 105.2941
2418.299, 102.9814
2420.227, 104.8311
2422.156, 106.6224
2424.084, 104.6194
2426.013, 102.9948
2427.941, 106.4306
2429.870, 107.0149
2431.798, 106.1648
2433.727, 107.5606
2435.655, 108.9572
2437.583, 109.5712
2439.512, 107.5329
2441.440, 104.6596
2443.369, 107.4067
2445.297, 109.0161
2447.226, 106.6102
2449.154, 106.4736
2451.083, 105.5658
2453.011, 104.1170
2454.940, 105.0943
2456.868, 105.2160
2458.797, 103.2242
2460.725, 101.0015
2462.654, 105.9972
2464.582, 109.1347
2466.510, 105.6417
2468.439, 105.2443
2470.367, 106.7331
2472.296, 108.5975
2474.224, 102.8838
2476.153, 100.4920
2478.081, 105.1039
2480.010, 103.8789
2481.938, 100.5842
2483.867, 102.9470
2485.795, 101.7672
2487.724, 98.88109
2489.652, 101.7911
2491.581, 101.3330
2493.509, 102.1240
2495.438, 102.8204
2497.366, 104.2735
2499.294, 108.6351
2501.223, 110.9311
2503.151, 108.8032
2505.080, 104.3483
2507.008, 105.8395
2508.937, 105.5525
2510.865, 104.9000
2512.794, 107.3960
2514.722, 110.0657
2516.651, 107.2952
2518.579, 99.97825
2520.508, 101.6431
2522.436, 104.5112
2524.365, 105.0945
2526.293, 106.6787
2528.221, 105.4072
2530.150, 103.8191
2532.078, 103.1608
2534.007, 102.2884
2535.935, 103.5056
2537.864, 103.1564
2539.792, 104.4216
2541.721, 101.8464
2543.649, 103.9265
2545.578, 107.6809
2547.506, 106.6650
2549.435, 107.9473
2551.363, 106.1051
2553.292, 102.6152
2555.220, 102.5299
2557.148, 103.3294
2559.077, 99.24553
2561.005, 98.38031
2562.934, 101.8835
2564.862, 104.8517
2566.791, 102.0821
2568.719, 100.6903
2570.648, 103.9850
2572.576, 102.6383
2574.505, 100.2021
2576.433, 101.8050
2578.362, 100.5720
2580.290, 97.43590
2582.219, 97.34219
2584.147, 101.3632
2586.075, 105.5441
2588.004, 104.4219
2589.932, 102.6645
2591.861, 101.3985
2593.789, 101.9656
2595.718, 98.07259
2597.646, 94.78925
2599.575, 97.51216
2601.503, 100.6274
2603.432, 101.3256
2605.360, 101.7288
2607.289, 100.3043
2609.217, 98.81207
2611.146, 98.39832
2613.074, 101.0420
2615.002, 100.5970
2616.931, 98.26318
2618.859, 104.1418
2620.788, 106.1542
2622.716, 105.4199
2624.645, 101.2253
2626.573, 97.82205
2628.502, 96.14301
2630.430, 97.23998
2632.359, 100.1265
2634.287, 104.0367
2636.216, 104.0957
2638.144, 100.4832
2640.073, 98.82378
2642.001, 100.6128
2643.929, 100.9675
2645.858, 101.5734
2647.786, 102.5137
2649.715, 102.9790
2651.643, 101.0575
2653.572, 97.72622
2655.500, 99.77455
2657.429, 102.8804
2659.357, 104.0946
2661.286, 101.8185
2663.214, 100.5436
2665.143, 101.0780
2667.071, 100.1073
2669.000, 101.1422
2670.928, 102.8740
2672.856, 99.18609
2674.785, 98.20194
2676.713, 99.15146
2678.642, 98.32633
2680.570, 100.0117
2682.499, 101.4049
2684.427, 96.71758
2686.356, 94.53492
2688.284, 95.06738
2690.213, 98.85271
2692.141, 96.33498
2694.070, 95.71114
2695.998, 100.8639
2697.927, 98.32951
2699.855, 95.09181
2701.783, 93.53207
2703.712, 93.04763
2705.640, 94.39738
2707.569, 96.45142
2709.497, 96.93301
2711.426, 96.11004
2713.354, 95.04288
2715.283, 94.98566
2717.211, 96.47250
2719.140, 96.47386
2721.068, 93.22717
2722.997, 91.28857
2724.925, 89.62823
2726.854, 88.27268
2728.782, 92.73303
2730.710, 93.96404
2732.639, 91.91079
2734.567, 93.70503
2736.496, 97.25592
2738.424, 99.98328
2740.353, 95.50420
2742.281, 94.15295
2744.210, 94.59873
2746.138, 92.94374
2748.067, 90.26557
2749.995, 90.46250
2751.924, 93.65392
2753.852, 92.22078
2755.781, 92.63445
2757.709, 95.87852
2759.637, 96.99953
2761.566, 93.80921
2763.494, 91.36205
2765.423, 93.02341
2767.351, 90.69470
2769.280, 89.01686
2771.208, 89.40484
2773.137, 89.89861
2775.065, 89.63808
2776.994, 88.36865
2778.922, 91.66448
2780.851, 92.74883
2782.779, 91.02652
2784.708, 90.80696
2786.636, 90.10000
2788.564, 88.96722
2790.493, 91.38706
2792.421, 90.42630
2794.350, 89.50857
2796.278, 89.74963
2798.207, 85.83052
2800.135, 86.12579
2802.064, 87.42520
2803.992, 90.47045
2805.921, 88.73085
2807.849, 85.15282
2809.778, 86.01437
2811.706, 87.04391
2813.635, 88.00070
2815.563, 85.95462
2817.491, 81.20516
2819.420, 82.95223
2821.348, 85.57698
2823.277, 83.62829
2825.205, 83.60822
2827.134, 88.01924
2829.062, 90.93881
2830.991, 90.88577
2832.919, 84.76992
2834.848, 78.97976
2836.776, 86.69029
2838.705, 86.73406
2840.633, 85.88892
2842.562, 83.75277
2844.490, 79.68968
2846.418, 77.57395
2848.347, 78.59811
2850.275, 83.86464
2852.204, 86.34697
2854.132, 85.80405
2856.061, 81.45574
2857.989, 81.88651
2859.918, 84.07523
2861.846, 83.81985
2863.775, 84.07249
2865.703, 82.09221
2867.632, 77.69768
2869.560, 78.08359
2871.489, 79.01073
2873.417, 81.29732
2875.345, 84.64210
2877.274, 78.77444
2879.202, 80.08968
2881.131, 87.08897
2883.059, 80.60432
2884.988, 77.34990
2886.916, 77.78445
2888.845, 79.46002
2890.773, 79.33952
2892.702, 77.12072
2894.630, 75.46818
2896.559, 74.70631
2898.487, 70.39796
2900.416, 71.48730
2902.344, 73.60761
2904.272, 72.92911
2906.201, 71.19273
2908.129, 73.07845
2910.058, 77.45513
2911.986, 77.21183
2913.915, 71.12670
2915.843, 72.15157
2917.772, 74.30492
2919.700, 73.43051
2921.629, 68.97485
2923.557, 71.34370
2925.486, 73.51921
2927.414, 68.28701
2929.343, 74.56104
2931.271, 73.32855
2933.199, 71.93891
2935.128, 73.58583
2937.056, 70.65928
2938.985, 66.61066
2940.913, 65.46719
2942.842, 70.12625
2944.770, 71.38076
2946.699, 69.72573
2948.627, 71.70225
2950.556, 69.91431
2952.484, 68.21305
2954.413, 71.16350
2956.341, 76.47368
2958.270, 70.07121
2960.198, 62.59983
2962.126, 65.24603
2964.055, 69.19025
2965.983, 75.37423
2967.912, 75.27799
2969.840, 69.49548
2971.769, 71.38782
2973.697, 71.29449
2975.626, 68.00292
2977.554, 65.91087
2979.483, 64.93335
2981.411, 64.90379
2983.340, 66.26031
2985.268, 63.44629
2987.197, 61.54077
2989.125, 63.95174
2991.053, 71.74894
2992.982, 66.80959
2994.910, 63.03038
2996.839, 62.89292
2998.767, 56.40893
3000.696, 59.83424
3002.624, 64.14047
3004.553, 58.29908
3006.481, 58.46817
3008.410, 60.35074
3010.338, 60.50138
3012.267, 60.05607
3014.195, 59.07618
3016.124, 55.34072
3018.052, 53.58452
3019.980, 57.91993
3021.909, 56.16424
3023.837, 57.50845
3025.766, 58.95691
3027.694, 52.98203
3029.623, 56.39820
3031.551, 60.03732
3033.480, 60.51903
3035.408, 53.46767
3037.337, 54.66158
3039.265, 58.74718
3041.194, 60.84359
3043.122, 54.69649
3045.051, 51.80698
3046.979, 54.87939
3048.907, 54.72339
3050.836, 50.73497
3052.764, 50.92723
3054.693, 54.66641
3056.621, 50.62131
3058.550, 52.19761
3060.478, 56.88239
3062.407, 56.93673
3064.335, 52.78201
3066.264, 51.37531
3068.192, 50.40614
3070.121, 50.87491
3072.049, 46.98860
3073.978, 49.87877
3075.906, 54.60480
3077.834, 56.44339
3079.763, 51.90867
3081.691, 48.76889
3083.620, 47.15806
3085.548, 48.40199
3087.477, 51.17265
3089.405, 49.22893
3091.334, 44.56433
3093.262, 44.79018
3095.191, 44.59201
3097.119, 48.74752
3099.048, 51.69720
3100.976, 46.43636
3102.905, 47.65186
3104.833, 46.41215
3106.761, 44.09705
3108.690, 46.48681
3110.618, 45.11512
3112.547, 42.87373
3114.475, 42.91904
3116.404, 46.88164
3118.332, 44.34079
3120.261, 42.22611
3122.189, 42.75427
3124.118, 39.19378
3126.046, 41.65345
3127.975, 43.12858
3129.903, 41.77801
3131.832, 41.30305
3133.760, 43.42986
3135.688, 43.65350
3137.617, 42.54299
3139.545, 43.32459
3141.474, 41.24940
3143.402, 42.17348
3145.331, 44.91358
3147.259, 41.44825
3149.188, 36.32576
3151.116, 35.62572
3153.045, 38.80945
3154.973, 40.89198
3156.902, 40.25182
3158.830, 35.57520
3160.759, 31.40287
3162.687, 36.84905
3164.615, 40.63319
3166.544, 37.80847
3168.472, 33.78208
3170.401, 39.96430
3172.329, 36.86299
3174.258, 35.23182
3176.186, 35.36077
3178.115, 33.09333
3180.043, 35.14484
3181.972, 38.28208
3183.900, 39.50605
3185.829, 36.94145
3187.757, 35.19480
3189.686, 33.62392
3191.614, 33.82775
3193.542, 36.70651
3195.471, 33.35519
3197.399, 35.15324
3199.328, 36.14967
3201.256, 32.25108
3203.185, 30.70124
3205.113, 33.85397
3207.042, 36.31441
3208.970, 35.94127
3210.899, 34.27825
3212.827, 34.40011
3214.756, 32.53477
3216.684, 30.30243
3218.613, 32.44122
3220.541, 32.54812
3222.469, 29.02944
3224.398, 27.43681
3226.326, 32.13123
3228.255, 32.90300
3230.183, 30.55245
3232.112, 30.01785
3234.040, 33.21206
3235.969, 35.87042
3237.897, 36.13974
3239.826, 34.75508
3241.754, 33.80241
3243.683, 34.72363
3245.611, 32.31313
3247.540, 30.38001
3249.468, 31.21051
3251.396, 33.09833
3253.325, 31.43771
3255.253, 28.16321
3257.182, 26.90380
3259.110, 30.23496
3261.039, 37.12892
3262.967, 30.63896
3264.896, 25.51227
3266.824, 28.42312
3268.753, 32.91114
3270.681, 33.79614
3272.610, 30.42078
3274.538, 28.19751
3276.467, 33.19316
3278.395, 32.51659
3280.323, 29.77282
3282.252, 26.62203
3284.180, 25.07374
3286.109, 34.12721
3288.037, 30.48559
3289.966, 27.59009
3291.894, 29.68481
3293.823, 30.53398
3295.751, 31.81736
3297.680, 30.97949
3299.608, 29.86765
3301.537, 29.97162
3303.465, 29.90424
3305.394, 25.78431
3307.322, 22.24031
3309.250, 22.03571
3311.179, 23.95258
3313.107, 31.70942
3315.036, 34.83936
3316.964, 33.25094
3318.893, 30.22149
3320.821, 28.57010
3322.750, 26.40425
3324.678, 24.61547
3326.607, 25.61113
3328.535, 32.01065
3330.464, 28.35990
3332.392, 29.06317
3334.321, 28.55931
3336.249, 23.38090
3338.177, 25.00486
3340.106, 29.41412
3342.034, 26.76703
3343.963, 21.92414
3345.891, 23.52859
3347.820, 27.73769
3349.748, 25.45678
3351.677, 22.08214
3353.605, 20.36615
3355.534, 23.43863
3357.462, 22.26029
3359.391, 22.57169
3361.319, 24.97927
3363.248, 27.07377
3365.176, 23.39905
3367.104, 26.10758
3369.033, 24.99987
3370.961, 24.85320
3372.890, 31.42455
3374.818, 23.05871
3376.747, 23.15490
3378.675, 23.27958
3380.604, 20.73738
3382.532, 19.78543
3384.461, 20.13040
3386.389, 23.40613
3388.318, 24.16874
3390.246, 22.17195
3392.175, 24.75836
3394.103, 25.77510
3396.031, 23.29583
3397.960, 21.31625
3399.888, 22.04864
3401.817, 19.88211
3403.745, 22.59737
3405.674, 24.22474
3407.602, 26.03160
3409.531, 28.40365
3411.459, 21.97701
3413.388, 23.00940
3415.316, 19.82265
3417.245, 17.35126
3419.173, 21.71029
3421.102, 23.06187
3423.030, 23.32829
3424.958, 22.94528
3426.887, 23.97790
3428.815, 26.32102
3430.744, 19.81540
3432.672, 21.51374
3434.601, 23.68004
3436.529, 20.49308
3438.458, 12.79919
3440.386, 15.69369
3442.315, 16.33179
3444.243, 17.60878
3446.172, 18.68927
3448.100, 17.70810
3450.029, 16.16465
3451.957, 20.87612
3453.885, 23.23799
3455.814, 20.88135
3457.742, 16.70992
3459.671, 18.17465
3461.599, 17.41544
3463.528, 18.11505
3465.456, 19.83121
3467.385, 20.56145
3469.313, 18.73464
3471.242, 21.16432
3473.170, 21.47116
3475.099, 21.02677
3477.027, 22.26373
3478.956, 25.37806
3480.884, 19.74226
3482.813, 17.88915
3484.741, 16.04043
3486.669, 16.79335
3488.598, 27.07976
3490.526, 23.10792
3492.455, 19.96482
3494.383, 19.37589
3496.312, 18.43288
3498.240, 15.76657
3500.169, 20.81350
3502.097, 18.81164
3504.026, 14.84040
3505.954, 16.91230
3507.883, 24.39835
3509.811, 20.24877
3511.740, 14.43199
3513.668, 16.85155
3515.596, 17.21893
3517.525, 13.28204
3519.453, 13.96312
3521.382, 20.46094
3523.310, 14.17421
3525.239, 14.33675
3527.167, 18.31826
3529.096, 16.83730
3531.024, 20.80337
3532.953, 18.03490
3534.881, 17.60830
3536.810, 17.07310
3538.738, 16.28650
3540.667, 20.24912
3542.595, 17.46806
3544.523, 12.71995
3546.452, 13.18565
3548.380, 15.84291
3550.309, 15.96362
3552.237, 17.99291
3554.166, 15.22344
3556.094, 16.53370
3558.023, 16.96275
3559.951, 16.13647
3561.880, 18.93925
3563.808, 19.26827
3565.737, 19.77170
3567.665, 16.89882
3569.594, 15.27255
3571.522, 16.40171
3573.450, 13.46840
3575.379, 16.29203
3577.307, 12.97657
3579.236, 15.92694
3581.164, 20.40414
3583.093, 17.69088
3585.021, 15.30088
3586.950, 18.24852
3588.878, 14.66067
3590.807, 12.91720
3592.735, 13.49272
3594.664, 11.77214
3596.592, 22.60909
3598.521, 13.20156
3600.449, 8.997962
3602.377, 11.60269
3604.306, 14.86011
3606.234, 14.99442
3608.163, 15.16663
3610.091, 15.41506
3612.020, 7.858518
3613.948, 9.050964
3615.877, 16.75313
3617.805, 10.89949
3619.734, 14.39709
3621.662, 12.52690
3623.591, 17.08733
3625.519, 15.71970
3627.448, 9.687314
3629.376, 13.35904
3631.304, 10.98597
3633.233, 10.01072
3635.161, 12.93612
3637.090, 16.68068
3639.018, 17.55141
3640.947, 14.48243
3642.875, 11.90232
3644.804, 14.31508
3646.732, 15.93943
3648.661, 13.25729
3650.589, 11.29014
3652.518, 15.03413
3654.446, 18.17917
3656.375, 17.35586
3658.303, 11.34691
3660.231, 11.79746
3662.160, 11.38897
3664.088, 6.250352
3666.017, 13.06702
3667.945, 10.85732
3669.874, 10.28147
3671.802, 7.940834
3673.731, 11.11201
3675.659, 15.65601
3677.588, 8.096785
3679.516, 17.67462
3681.445, 9.687637
3683.373, 8.887768
3685.302, 12.66862
3687.230, 13.95278
3689.158, 12.08975
3691.087, 11.98550
3693.015, 13.46076
3694.944, 10.32021
3696.872, 10.60596
3698.801, 10.64924
3700.729, 7.990426
3702.658, 6.973862
3704.586, 7.632909
3706.515, 9.552938
3708.443, 9.953784
3710.372, 10.75774
3712.300, 10.81464
3714.229, 8.767617
3716.157, 6.756483
3718.085, 9.620811
3720.014, 9.073713
3721.942, 10.95352
3723.871, 8.111812
3725.799, 5.548177
3727.728, 9.889300
3729.656, 10.22642
3731.585, 7.745507
3733.513, 11.94254
3735.442, 11.71829
3737.370, 8.849534
3739.299, 7.545333
3741.227, 8.510303
3743.156, 10.60944
3745.084, 8.058228
3747.012, 8.703435
3748.941, 6.505987
3750.869, 6.944100
3752.798, 10.34776
3754.726, 10.95316
3756.655, 4.756125
3758.583, 8.249666
3760.512, 5.870466
3762.440, 8.671613
3764.369, 10.20672
3766.297, 8.304068
3768.226, 6.329154
3770.154, 4.337154
3772.083, 8.900469
3774.011, 9.883188
3775.939, 10.14722
3777.868, 8.265391
3779.796, 9.185327
3781.725, 12.34003
3783.653, 9.545276
3785.582, 8.453101
3787.510, 6.318844
3789.439, 8.040022
3791.367, 5.020635
3793.296, 1.688268
3795.224, 2.769656
3797.153, 6.342881
3799.081, 7.617980
3801.010, 3.682370
3802.938, 5.374661
3804.866, 7.810773
3806.795, 3.881603
3808.723, 3.574518
3810.652, 7.967773
3812.580, 4.502943
3814.509, 4.444652
3816.437, 3.391431
3818.366, 3.522294
3820.294, 6.795872
3822.223, 8.486279
3824.151, 9.139203
3826.080, 11.05087
3828.008, 11.93705
3829.937, 4.927528
3831.865, 6.983524
3833.793, 4.935281
3835.722, 5.405355
3837.650, 5.751927
3839.579, 5.749799
3841.507, 6.357159
3843.436, 4.566137
3845.364, 5.358632
3847.293, 8.313119
3849.221, 1.778539
3851.150, -2.114048
3853.078, -0.7597606
3855.007, 0.6059968
3856.935, 1.932006
3858.864, 7.371045
3860.792, 7.916732
3862.720, 1.552161
3864.649, 6.019775
3866.577, 11.73430
3868.506, 10.98600
3870.434, 8.785028
3872.363, 6.399110
3874.291, 2.417174
3876.220, 4.156584
3878.148, 7.570236
3880.077, 5.316272
3882.005, 3.473281
3883.934, 3.964293
3885.862, 9.486477
3887.791, 6.968315
3889.719, -1.684009
3891.647, 1.105323
3893.576, 2.228981
3895.504, 0.1127345
3897.433, 11.96986
3899.361, 11.58555
3901.290, 4.500367
3903.218, 9.500615
3905.147, 13.49945
3907.075, 5.797299
3909.004, 1.314702
3910.932, 3.101520
3912.861, 3.284968
3914.789, 3.077018
3916.718, 5.387349
3918.646, 2.572457
3920.574, 4.083639
3922.503, 2.830842
3924.431, -1.297051
3926.360, 1.825720
3928.288, -1.034255
3930.217, 0.4713122
3932.145, 6.368123
3934.074, 3.204451
3936.002, -1.798723
3937.931, 1.380720
3939.859, 4.112891
3941.788, 3.908990
3943.716, 4.298001
3945.645, 3.806398
3947.573, 8.283553
3949.501, 1.909477
3951.430, 4.116272
3953.358, 4.340922
3955.287, 0.3839254
3957.215, 5.006037
3959.144, 4.959295
3961.072, 0.6891271
3963.001, 2.234988
3964.929, 1.179712
3966.858, 1.037758
3968.786, 5.426206
3970.715, 5.591998
3972.643, 0.6561345
3974.572, -2.359487
3976.500, -1.196514
3978.428, 4.197755
3980.357, 5.676490
3982.285, 2.489950
3984.214, 4.051493
3986.142, 5.661571
3988.071, -2.345316
3989.999, 6.583402
3991.928, 9.907766
3993.856, 6.766616
3995.785, 2.810946
3997.713, 0.1776210
3999.642, 1.403623
4001.570, 3.903751
4003.499, 2.796547
4005.427, 0.3369302
4007.355, 3.501859
4009.284, 5.038517
4011.212, 0.8608250
4013.141, -1.327007
4015.069, 1.870886
4016.998, -0.4285067
4018.926, -3.919865
4020.855, -0.4170920
4022.783, 3.293510
4024.712, 2.538192
4026.640, 2.443085
4028.569, 1.184435
4030.497, -2.221033
4032.426, -1.445771
4034.354, -0.4377026
4036.282, 1.853163
4038.211, 2.906074
4040.139, -0.3484804
4042.068, 1.882626
4043.996, 1.567681
4045.925, -1.331509
4047.853, -0.8727720
4049.782, -0.2339526
4051.710, -1.066061
4053.639, -6.8688497E-02
4055.567, -1.190987
4057.496, -0.9898984
4059.424, 8.144089
4061.353, 8.584422
4063.281, 4.601936
4065.209, 6.202778
4067.138, 7.197232
4069.066, 0.4481353
4070.995, -0.3377872
4072.923, 5.598403
4074.852, 3.846248
4076.780, 3.684964
4078.709, 1.401928
4080.637, -1.029788
4082.566, -1.144179
4084.494, -2.249384
4086.423, -3.134713
4088.351, 2.103526
4090.280, 2.762293
4092.208, -1.333833
4094.136, -4.293023
4096.065, -5.450220
4097.994, -3.258269
4099.922, -0.9052865
4101.851, -1.372244
4103.779, 2.980132
4105.708, -3.403353
4107.636, -3.840361
4109.564, -1.608198
4111.493, -0.6263589
4113.421, 5.063338
4115.350, -3.097607
4117.278, -7.760617
4119.207, -3.675729
4121.135, -1.095878
4123.063, -2.250780
4124.992, -1.015347
4126.920, 1.361828
4128.849, 0.8528947
4130.777, 0.4565547
4132.706, 0.7055053
4134.634, -3.735946
4136.563, 1.120181
4138.491, -2.185215
4140.420, -2.588613
4142.348, -1.451680
4144.277, -1.997823
4146.205, 4.452724
4148.134, 5.699737
4150.062, 3.876670
4151.991, 0.4931425
4153.919, -2.755688
4155.848, 1.638175
4157.776, 2.831846
4159.705, -2.044652
4161.633, -3.515155
4163.562, -4.657961
4165.490, -7.159269
4167.418, -3.557921
4169.347, -0.1969170
4171.275, -1.242359
4173.204, -0.1784760
4175.132, 1.272819
4177.061, -1.284468
4178.989, 3.556248
4180.917, -2.210122
4182.846, -2.098391
4184.774, -0.4133750
4186.703, -0.7696103
4188.631, 3.440591
4190.560, 7.071421
4192.488, 8.309784
4194.417, 0.4597143
4196.345, -3.695915
4198.274, -1.204383
4200.202, -3.492631
4202.131, -2.766319
4204.059, -1.869410
4205.988, 2.071488
4207.916, 0.3177192
4209.845, 4.871783
4211.773, 6.341824
4213.702, 1.684319
4215.630, 1.530522
4217.559, -1.867205
4219.487, -4.500649
4221.416, 4.485916
4223.344, 5.407695
4225.272, -3.012784
4227.201, -2.625188
4229.129, -0.3013167
4231.058, -0.9211779
4232.986, 7.3662072E-02
4234.915, -3.662651
4236.843, 2.8098101E-02
4238.771, 0.3308700
4240.700, -3.442348
4242.628, -1.236421
4244.557, -5.090233
4246.485, -6.838022
4248.414, 2.215263
4250.342, 1.548730
4252.271, 2.765220
4254.199, 0.1522186
4256.128, -8.237160
4258.056, -1.242121
4259.985, 2.029018
4261.913, -3.525434
4263.842, 5.746773
4265.770, 6.601952
4267.699, 4.398230
4269.627, 0.1252250
4271.556, 4.244342
4273.484, 7.205710
4275.413, -3.149536
4277.341, -4.188414
4279.270, 6.607273
4281.198, -2.291481
4283.126, -1.205669
4285.055, -1.766991
4286.983, -2.270418
4288.912, -5.316867
4290.840, 2.465055
4292.769, -7.037801
4294.697, -8.562111
4296.625, 0.4550638
4298.554, -2.225944
4300.482, -1.550566
4302.411, 3.319009
4304.339, 3.592570
4306.268, 1.523554
4308.196, -0.2488983
4310.125, 0.6855955
4312.053, 4.307139
4313.982, 1.288119
4315.910, -2.126989
4317.839, 1.733865
4319.767, -0.9610326
4321.696, 3.754665
4323.624, 2.007530
4325.553, 0.3310626
4327.481, 0.8299938
4329.410, 1.146556
4331.338, 4.047520
4333.267, -5.524478
4335.195, -5.793787
4337.124, 3.678231
4339.052, -2.594953
4340.980, 0.1668641
4342.909, 5.881653
4344.837, 0.2635119
4346.766, -0.4711424
4348.694, -0.8594465
4350.623, -4.599139
