##NAMES=Goethite
##RRUFFID=R050142
##IDEAL CHEMISTRY=Fe^3+^O(OH)
##LOCALITY=Park County, Colorado, USA
##OWNER=RRUFF
##SOURCE=Dave Bunk Minerals
##DESCRIPTION=Radiating spray of black to brown platy crystals
##STATUS=The identification of this mineral has been confirmed by X-ray diffraction and chemical analysis
##URL=rruff.info/R050142
##MEASURED CHEMISTRY=FeO(OH)
83.78855, 251.1164
85.71702, 253.3150
87.64548, 249.4239
89.57395, 241.5273
91.50242, 235.9256
93.43089, 234.5026
95.35935, 219.1523
97.28782, 199.3697
99.21629, 181.3305
101.1448, 164.3497
103.0732, 148.7425
105.0017, 136.0550
106.9301, 126.0664
108.8586, 117.1773
110.7871, 108.7046
112.7155, 101.5591
114.6440, 95.78086
116.5725, 91.23042
118.5009, 87.90845
120.4294, 85.68301
122.3579, 84.40463
124.2863, 84.53706
126.2148, 84.76472
128.1433, 84.64252
130.0717, 84.13682
132.0002, 82.97932
133.9287, 81.12265
135.8571, 79.51153
137.7856, 78.10878
139.7141, 77.26364
141.6425, 77.13227
143.5710, 77.55083
145.4995, 78.43440
147.4279, 79.73558
149.3564, 80.88898
151.2849, 81.24883
153.2133, 82.62478
155.1418, 84.92979
157.0703, 88.81894
158.9987, 95.32200
160.9272, 104.1608
162.8557, 114.8959
164.7841, 129.8283
166.7126, 141.0316
168.6411, 146.2085
170.5695, 147.9943
172.4980, 147.4739
174.4265, 145.1175
176.3549, 141.7875
178.2834, 136.6314
180.2119, 133.4508
182.1403, 132.3183
184.0688, 133.4533
185.9973, 138.3767
187.9257, 145.1414
189.8542, 151.0833
191.7827, 156.3448
193.7111, 159.4378
195.6396, 159.4105
197.5681, 158.4912
199.4965, 156.4016
201.4250, 154.3655
203.3535, 153.9829
205.2819, 155.1391
207.2104, 154.2439
209.1389, 149.4160
211.0673, 145.1450
212.9958, 142.2955
214.9243, 139.5904
216.8527, 135.8759
218.7812, 131.7787
220.7097, 128.8960
222.6381, 127.3298
224.5666, 126.9992
226.4951, 128.3053
228.4235, 130.1377
230.3520, 132.7675
232.2805, 135.1813
234.2089, 136.2754
236.1374, 136.0423
238.0659, 135.4582
239.9943, 134.4559
241.9228, 133.3638
243.8513, 131.8440
245.7797, 130.8103
247.7082, 129.8069
249.6367, 129.8709
251.5651, 133.0713
253.4936, 139.3955
255.4221, 150.7574
257.3505, 169.5998
259.2790, 188.0531
261.2075, 205.1119
263.1359, 218.8475
265.0644, 227.2264
266.9929, 230.5913
268.9213, 230.5223
270.8498, 226.6731
272.7783, 223.5240
274.7067, 221.0983
276.6352, 221.0561
278.5637, 224.1972
280.4921, 229.7967
282.4206, 238.7985
284.3491, 249.8684
286.2775, 256.9072
288.2060, 259.3976
290.1345, 258.7776
292.0629, 255.1966
293.9914, 248.8965
295.9199, 238.6422
297.8483, 226.3752
299.7768, 214.2619
301.7053, 202.4524
303.6337, 192.1260
305.5622, 183.2016
307.4907, 176.3460
309.4191, 172.2791
311.3476, 169.3526
313.2761, 166.2517
315.2045, 164.1459
317.1330, 164.1224
319.0615, 166.2160
320.9899, 170.8598
322.9184, 178.7874
324.8469, 188.3631
326.7753, 197.7301
328.7038, 210.6408
330.6323, 227.7313
332.5607, 250.5630
334.4892, 280.5938
336.4177, 317.8030
338.3461, 363.5876
340.2746, 416.8792
342.2031, 481.3419
344.1315, 563.5018
346.0600, 648.5759
347.9885, 736.3024
349.9169, 817.9110
351.8454, 883.1486
353.7739, 932.1243
355.7023, 969.5758
357.6308, 993.3789
359.5593, 1011.871
361.4877, 1023.202
363.4162, 1033.781
365.3447, 1045.108
367.2731, 1058.377
369.2016, 1077.812
371.1301, 1100.960
373.0585, 1115.193
374.9870, 1121.099
376.9154, 1115.322
378.8439, 1096.700
380.7724, 1068.464
382.7008, 1030.781
384.6293, 984.4615
386.5578, 927.3162
388.4862, 862.5862
390.4147, 795.6312
392.3432, 726.5048
394.2716, 662.0065
396.2001, 602.2659
398.1286, 547.9139
400.0570, 500.0701
401.9855, 456.8651
403.9140, 418.4399
405.8424, 383.8338
407.7709, 352.3058
409.6994, 323.5417
411.6278, 296.2002
413.5563, 270.2178
415.4848, 246.4347
417.4132, 225.0142
419.3417, 205.8769
421.2702, 189.3698
423.1986, 174.6248
425.1271, 160.9237
427.0556, 148.7824
428.9840, 138.8366
430.9125, 130.9389
432.8410, 124.6803
434.7694, 120.3260
436.6979, 116.8330
438.6264, 113.8614
440.5548, 111.8923
442.4833, 111.8071
444.4118, 112.1187
446.3402, 111.4907
448.2687, 110.4364
450.1972, 109.8280
452.1256, 109.7010
454.0541, 109.7755
455.9826, 110.3290
457.9110, 110.4790
459.8395, 109.8540
461.7680, 109.3826
463.6964, 109.2855
465.6249, 109.5459
467.5534, 110.3745
469.4818, 111.3884
471.4103, 111.8993
473.3388, 111.9002
475.2672, 111.5116
477.1957, 110.4889
479.1242, 109.7943
481.0526, 109.3516
482.9811, 109.4594
484.9096, 110.3541
486.8380, 111.7918
488.7665, 113.4697
490.6950, 115.5961
492.6234, 118.2403
494.5519, 121.3942
496.4804, 126.3557
498.4088, 132.9289
500.3373, 142.2546
502.2658, 154.3714
504.1942, 169.3631
506.1227, 188.1653
508.0512, 208.8924
509.9796, 232.7679
511.9081, 256.1597
513.8365, 275.0694
515.7650, 289.9487
517.6935, 302.0542
519.6219, 311.4241
521.5504, 316.9674
523.4789, 317.8820
525.4073, 318.2822
527.3358, 319.2581
529.2643, 319.7950
531.1927, 319.2064
533.1212, 318.4900
535.0497, 320.1135
536.9781, 320.8336
538.9066, 315.3022
540.8351, 304.4739
542.7635, 290.6634
544.6920, 273.8804
546.6205, 255.9430
548.5490, 236.6228
550.4774, 217.2498
552.4059, 197.0806
554.3344, 178.1830
556.2628, 160.9786
558.1913, 145.7930
560.1198, 133.2668
562.0482, 122.5905
563.9767, 112.4362
565.9052, 103.1274
567.8336, 95.94730
569.7621, 91.15945
571.6906, 86.39548
573.6190, 80.90450
575.5475, 76.66261
577.4760, 74.15653
579.4044, 72.21146
581.3329, 70.71477
583.2614, 69.43305
585.1898, 68.22630
587.1183, 67.11534
589.0468, 66.15171
590.9752, 65.27332
592.9037, 64.33801
594.8322, 63.36600
596.7606, 62.69405
598.6891, 62.50613
600.6176, 61.85246
602.5460, 60.37209
604.4745, 59.33114
606.4030, 59.44850
608.3314, 59.37527
610.2599, 57.87288
612.1884, 56.49431
614.1168, 56.63181
616.0453, 57.46803
617.9738, 57.70678
619.9022, 57.43519
621.8307, 56.98821
623.7592, 56.33260
625.6876, 56.28251
627.6161, 56.89717
629.5446, 57.92390
631.4730, 59.60044
633.4015, 60.86703
635.3300, 60.96735
637.2584, 61.18967
639.1869, 62.09644
641.1154, 63.25265
643.0438, 64.28531
644.9723, 65.41418
646.9008, 67.14660
648.8292, 69.22136
650.7577, 70.68240
652.6862, 71.60569
654.6146, 72.66470
656.5431, 73.92427
658.4716, 74.55200
660.4000, 74.17232
662.3285, 74.03600
664.2570, 74.84407
666.1854, 75.16830
668.1139, 74.42216
670.0424, 73.39730
671.9708, 72.74130
673.8993, 71.93733
675.8278, 70.09154
677.7562, 67.84972
679.6847, 66.48352
681.6132, 65.48112
683.5416, 63.31879
685.4701, 60.11110
687.3986, 57.79961
689.3270, 56.74945
691.2555, 55.23083
693.1840, 52.47738
695.1124, 50.50609
697.0409, 50.12049
698.9694, 49.29387
700.8978, 47.17751
702.8263, 45.21711
704.7548, 44.12068
706.6832, 43.26111
708.6117, 42.09233
710.5402, 40.97634
712.4686, 40.52121
714.3971, 40.37410
716.3256, 39.68089
718.2540, 38.62629
720.1825, 38.10773
722.1110, 38.13151
724.0394, 37.99482
725.9679, 37.58630
727.8964, 37.42874
729.8248, 37.83498
731.7533, 37.74105
733.6818, 36.51730
735.6102, 35.67471
737.5387, 36.01192
739.4672, 36.45366
741.3956, 36.52809
743.3241, 36.39564
745.2526, 36.10387
747.1810, 35.74240
749.1095, 35.20135
751.0380, 34.83628
752.9664, 35.23993
754.8949, 35.91952
756.8234, 35.95477
758.7518, 35.54137
760.6803, 35.24817
762.6088, 35.07186
764.5372, 35.02789
766.4657, 35.10219
768.3942, 35.12476
770.3226, 35.07092
772.2511, 35.04999
774.1796, 35.12112
776.1080, 35.13210
778.0365, 34.96630
779.9650, 34.85691
781.8934, 34.90126
783.8218, 34.85879
785.7503, 34.56768
787.6788, 34.40837
789.6072, 34.72687
791.5357, 35.10299
793.4642, 35.12352
795.3926, 34.96778
797.3211, 34.95118
799.2496, 34.91252
801.1780, 34.46169
803.1065, 33.75805
805.0350, 33.20936
806.9634, 32.84309
808.8919, 32.75703
810.8204, 32.93416
812.7488, 33.02720
814.6773, 33.11401
816.6058, 33.09228
818.5342, 32.73552
820.4627, 32.60807
822.3912, 32.95005
824.3196, 32.93048
826.2481, 32.23963
828.1766, 31.85684
830.1050, 32.20718
832.0335, 32.34095
833.9620, 31.63737
835.8904, 31.17738
837.8189, 31.91317
839.7474, 32.51925
841.6758, 31.80856
843.6043, 30.94999
845.5328, 30.82450
847.4612, 30.97998
849.3897, 31.10685
851.3182, 31.10235
853.2466, 30.68132
855.1751, 30.13416
857.1036, 30.08719
859.0320, 30.25242
860.9605, 29.89246
862.8890, 29.21982
864.8174, 28.96833
866.7459, 29.13236
868.6744, 29.32932
870.6028, 29.46316
872.5313, 29.39370
874.4598, 29.18693
876.3882, 28.80577
878.3167, 28.18636
880.2452, 27.74593
882.1736, 27.57809
884.1021, 27.16699
886.0306, 26.33425
887.9590, 25.96722
889.8875, 26.36742
891.8160, 26.54513
893.7444, 26.33805
895.6729, 26.10747
897.6014, 25.71674
899.5298, 25.43299
901.4583, 25.55090
903.3868, 25.54152
905.3152, 25.16619
907.2437, 24.64757
909.1722, 23.77566
911.1006, 23.31121
913.0291, 24.05306
914.9576, 24.73397
916.8860, 24.40310
918.8145, 23.92947
920.7430, 24.07535
922.6714, 24.26481
924.5999, 23.93074
926.5284, 23.42767
928.4568, 22.76987
930.3853, 22.25011
932.3138, 22.67364
934.2422, 23.37366
936.1707, 23.21132
938.0992, 22.69610
940.0276, 22.66896
941.9561, 22.89339
943.8846, 23.06132
945.8130, 23.24978
947.7415, 23.40640
949.6700, 23.49167
951.5984, 23.53576
953.5269, 23.53495
955.4554, 23.60210
957.3839, 23.82550
959.3123, 24.23832
961.2408, 24.74500
963.1693, 25.24998
965.0977, 25.80443
967.0262, 26.00360
968.9547, 25.85327
970.8831, 26.48382
972.8116, 27.82318
974.7401, 28.20376
976.6685, 27.72029
978.5970, 27.80000
980.5255, 28.41156
982.4539, 28.84132
984.3824, 29.08808
986.3109, 29.14044
988.2393, 28.94670
990.1678, 28.59740
992.0963, 28.16873
994.0247, 28.06649
995.9532, 28.27973
997.8817, 27.78875
999.8101, 26.50216
1001.739, 25.51285
1003.667, 24.92554
1005.596, 24.34132
1007.524, 23.67594
1009.452, 23.23783
1011.381, 23.15908
1013.309, 23.07085
1015.238, 22.87241
1017.166, 22.62790
1019.095, 22.44550
1021.023, 21.89375
1022.952, 20.71230
1024.880, 20.11144
1026.809, 20.40322
1028.737, 20.36656
1030.666, 19.76898
1032.594, 19.41178
1034.522, 19.35197
1036.451, 19.48951
1038.379, 20.02726
1040.308, 20.13137
1042.236, 19.59270
1044.165, 19.18395
1046.093, 18.95439
1048.022, 18.88758
1049.950, 19.03925
1051.879, 18.92375
1053.807, 18.38900
1055.736, 18.33868
1057.664, 18.95546
1059.593, 19.20020
1061.521, 18.97870
1063.449, 18.81812
1065.378, 18.71876
1067.306, 18.60006
1069.235, 18.49105
1071.163, 18.62753
1073.092, 18.96483
1075.020, 19.11666
1076.949, 19.18064
1078.877, 19.15622
1080.806, 18.93994
1082.734, 18.80066
1084.663, 18.76563
1086.591, 18.77657
1088.520, 18.86783
1090.448, 18.82801
1092.376, 18.59033
1094.305, 18.51674
1096.233, 18.74201
1098.162, 19.11716
1100.090, 19.43545
1102.019, 19.28558
1103.947, 18.85408
1105.876, 18.73161
1107.804, 18.79045
1109.733, 18.43032
1111.661, 17.82390
1113.590, 17.65480
1115.518, 17.72599
1117.447, 17.65061
1119.375, 17.55783
1121.303, 17.50688
1123.232, 17.38231
1125.160, 17.08767
1127.089, 16.87499
1129.017, 17.08725
1130.946, 17.31321
1132.874, 17.14413
1134.803, 16.87800
1136.731, 16.56775
1138.660, 16.21395
1140.588, 16.00909
1142.517, 16.02956
1144.445, 16.35671
1146.374, 16.68723
1148.302, 16.72128
1150.230, 16.59424
1152.159, 16.47655
1154.087, 16.44835
1156.016, 16.51563
1157.944, 16.53217
1159.873, 16.44096
1161.801, 16.47515
1163.730, 16.64067
1165.658, 16.71395
1167.587, 16.69233
1169.515, 16.86463
1171.444, 17.37047
1173.372, 17.54940
1175.301, 17.13331
1177.229, 16.90014
1179.157, 17.07030
1181.086, 17.31459
1183.014, 17.55514
1184.943, 17.54224
1186.871, 17.25962
1188.800, 17.31550
1190.728, 17.72978
1192.657, 18.10099
1194.585, 18.37199
1196.514, 18.04758
1198.442, 17.38886
1200.371, 17.36219
1202.299, 17.74715
1204.228, 18.14736
1206.156, 18.38757
1208.084, 18.05501
1210.013, 17.65264
1211.941, 17.96941
1213.870, 18.41637
1215.798, 18.31295
1217.727, 18.20815
1219.655, 18.58324
1221.584, 18.81447
1223.512, 18.51991
1225.441, 18.20899
1227.369, 17.96916
1229.298, 18.06080
1231.226, 18.72052
1233.155, 19.21484
1235.083, 19.45350
1237.011, 19.41076
1238.940, 18.95016
1240.868, 18.76039
1242.797, 18.74843
1244.725, 19.02192
1246.654, 19.82948
1248.582, 19.92488
1250.511, 19.20578
1252.439, 19.04746
1254.368, 19.40474
1256.296, 19.48056
1258.225, 19.34624
1260.153, 19.15492
1262.082, 18.98184
1264.010, 19.23106
1265.938, 19.68856
1267.867, 19.82014
1269.795, 19.60295
1271.724, 19.19201
1273.652, 18.97449
1275.581, 19.14071
1277.509, 19.24286
1279.438, 18.90571
1281.366, 18.89840
1283.295, 19.71972
1285.223, 20.12126
1287.152, 19.75691
1289.080, 19.55178
1291.009, 19.57361
1292.937, 19.49254
1294.865, 19.40205
1296.794, 19.36360
1298.722, 19.18496
1300.651, 19.00241
1302.579, 18.96147
1304.508, 18.75040
1306.436, 18.40954
1308.365, 18.50867
1310.293, 18.67723
1312.222, 18.11573
1314.150, 17.72388
1316.079, 18.24394
1318.007, 18.61094
1319.936, 18.60279
1321.864, 18.42005
1323.792, 17.68775
1325.721, 17.37369
1327.649, 17.94696
1329.578, 18.16230
1331.506, 17.71016
1333.435, 17.12500
1335.363, 16.64252
1337.292, 16.60776
1339.220, 16.79973
1341.149, 16.62041
1343.077, 16.28832
1345.006, 16.27675
1346.934, 16.29038
1348.863, 16.26709
1350.791, 16.31386
1352.719, 16.12657
1354.648, 15.88025
1356.576, 15.96392
1358.505, 16.02756
1360.433, 15.81993
1362.362, 15.58950
1364.290, 15.28503
1366.219, 15.09129
1368.147, 15.15554
1370.076, 15.31795
1372.004, 15.39618
1373.933, 15.12902
1375.861, 14.77825
1377.790, 14.81274
1379.718, 15.09277
1381.646, 15.19305
1383.575, 15.27021
1385.503, 15.62111
1387.432, 15.72048
1389.360, 15.41287
1391.289, 15.26570
1393.217, 15.39502
1395.146, 15.50433
1397.074, 15.42126
1399.003, 15.10094
1400.931, 14.73152
1402.860, 14.96255
1404.788, 15.57506
1406.717, 15.24225
1408.645, 14.52192
1410.573, 14.89722
1412.502, 15.53839
1414.430, 15.37739
1416.359, 15.16223
1418.287, 15.63814
1420.216, 15.91582
1422.144, 15.56768
1424.073, 15.20371
1426.001, 15.04093
1427.930, 15.11336
1429.858, 15.29876
1431.787, 15.29773
1433.715, 15.10349
1435.644, 15.08539
1437.572, 15.27156
1439.500, 15.28714
1441.429, 15.17383
1443.357, 15.16604
1445.286, 15.17516
1447.214, 14.90523
1449.143, 14.71560
1451.071, 14.80095
1453.000, 14.56543
1454.928, 14.20772
1456.857, 14.70574
1458.785, 15.44922
1460.714, 15.53308
1462.642, 15.44788
1464.571, 15.39804
1466.499, 15.28429
1468.427, 15.08534
1470.356, 14.85056
1472.284, 14.72447
1474.213, 14.79827
1476.141, 14.92204
1478.070, 14.83193
1479.998, 14.58456
1481.927, 14.69881
1483.855, 15.09051
1485.784, 14.74546
1487.712, 14.11039
1489.641, 14.21295
1491.569, 14.40658
1493.498, 14.34114
1495.426, 14.20869
1497.354, 14.00582
1499.283, 13.95936
1501.211, 14.19922
1503.140, 14.43062
1505.068, 14.25098
1506.997, 13.93312
1508.925, 13.93560
1510.854, 14.11721
1512.782, 14.21603
1514.711, 14.41219
1516.639, 14.47673
1518.568, 14.04023
1520.496, 13.86813
1522.425, 14.28426
1524.353, 14.61648
1526.281, 14.71196
1528.210, 14.38229
1530.138, 13.85195
1532.067, 13.89767
1533.995, 14.17208
1535.924, 14.44101
1537.852, 14.59334
1539.781, 14.16351
1541.709, 13.84719
1543.638, 14.07829
1545.566, 14.36116
1547.495, 14.39384
1549.423, 14.30425
1551.352, 14.37677
1553.280, 14.63354
1555.208, 14.73532
1557.137, 14.37999
1559.065, 13.95092
1560.994, 13.64881
1562.922, 13.65502
1564.851, 14.18399
1566.779, 14.74660
1568.708, 14.89293
1570.636, 14.81230
1572.565, 14.80483
1574.493, 14.64132
1576.422, 14.52273
1578.350, 14.57861
1580.279, 14.68458
1582.207, 14.75179
1584.135, 14.83880
1586.064, 14.90260
1587.992, 14.69757
1589.921, 14.44515
1591.849, 14.38055
1593.778, 14.55121
1595.706, 14.63458
1597.635, 14.58488
1599.563, 14.93905
1601.492, 15.09140
1603.420, 14.59493
1605.349, 14.34180
1607.277, 14.49335
1609.205, 14.83466
1611.134, 15.01832
1613.062, 14.56067
1614.991, 14.34740
1616.919, 14.74520
1618.848, 14.91357
1620.776, 14.77768
1622.705, 14.59261
1624.633, 14.56805
1626.562, 14.69083
1628.490, 14.77003
1630.419, 14.69252
1632.347, 14.59090
1634.276, 14.82514
1636.204, 14.74680
1638.132, 14.18485
1640.061, 14.04990
1641.989, 14.10623
1643.918, 14.22272
1645.846, 14.45512
1647.775, 14.76886
1649.703, 15.07549
1651.632, 14.79870
1653.560, 14.47319
1655.489, 14.49966
1657.417, 14.60653
1659.346, 14.67963
1661.274, 14.73725
1663.203, 14.85263
1665.131, 14.76652
1667.059, 14.51679
1668.988, 14.43478
1670.916, 14.25884
1672.845, 14.04275
1674.773, 14.20911
1676.702, 14.20739
1678.630, 14.08509
1680.559, 14.24804
1682.487, 14.02855
1684.416, 13.76501
1686.344, 13.88072
1688.273, 13.77563
1690.201, 13.45617
1692.130, 13.40843
1694.058, 13.58707
1695.986, 13.31063
1697.915, 12.75943
1699.843, 12.69278
1701.772, 12.81612
1703.700, 12.99945
1705.629, 13.24476
1707.557, 12.99785
1709.486, 12.61406
1711.414, 12.58898
1713.343, 12.80718
1715.271, 12.84056
1717.200, 12.75078
1719.128, 12.71339
1721.057, 12.66858
1722.985, 12.63521
1724.913, 12.57005
1726.842, 12.51095
1728.770, 12.47781
1730.699, 12.59537
1732.627, 12.69791
1734.556, 12.37592
1736.484, 12.30255
1738.413, 12.65420
1740.341, 12.81462
1742.270, 12.68307
1744.198, 12.26016
1746.127, 12.00054
1748.055, 12.09114
1749.984, 12.35110
1751.912, 12.58835
1753.840, 12.49560
1755.769, 12.41476
1757.697, 12.44852
1759.626, 12.35335
1761.554, 12.25859
1763.483, 12.06122
1765.411, 11.78508
1767.340, 12.08725
1769.268, 12.64541
1771.197, 12.71252
1773.125, 12.40604
1775.054, 11.89926
1776.982, 11.66446
1778.911, 11.85479
1780.839, 12.44291
1782.767, 12.90248
1784.696, 12.71843
1786.624, 12.46791
1788.553, 12.30915
1790.481, 12.43690
1792.410, 12.55015
1794.338, 12.15020
1796.267, 11.81283
1798.195, 11.88529
1800.124, 12.16223
1802.052, 12.25453
1803.981, 11.98668
1805.909, 11.72566
1807.838, 11.58833
1809.766, 11.80225
1811.694, 12.03884
1813.623, 11.76870
1815.551, 11.54570
1817.480, 11.65391
1819.408, 11.97034
1821.337, 12.09040
1823.265, 11.81788
1825.194, 11.65672
1827.122, 11.74588
1829.051, 11.87982
1830.979, 11.99047
1832.908, 11.98785
1834.836, 11.88506
1836.765, 11.73525
1838.693, 11.57658
1840.621, 11.57773
1842.550, 11.59565
1844.478, 11.48179
1846.407, 11.51795
1848.335, 11.85311
1850.264, 11.95563
1852.192, 11.42029
1854.121, 11.05696
1856.049, 11.42357
1857.978, 11.81789
1859.906, 11.65424
1861.835, 11.19428
1863.763, 10.99257
1865.692, 10.88278
1867.620, 10.88895
1869.548, 11.17649
1871.477, 11.42702
1873.405, 11.45086
1875.334, 11.19657
1877.262, 11.17775
1879.191, 11.69204
1881.119, 11.43200
1883.048, 10.68266
1884.976, 10.53264
1886.905, 10.65703
1888.833, 10.80542
1890.762, 11.08086
1892.690, 11.41792
1894.619, 11.30347
1896.547, 11.02240
1898.475, 11.04582
1900.404, 11.04625
1902.332, 10.89384
1904.261, 10.66711
1906.189, 10.59143
1908.118, 11.03294
1910.046, 11.38941
1911.975, 11.16875
1913.903, 10.96368
1915.832, 10.81824
1917.760, 10.66460
1919.689, 10.77272
1921.617, 10.99361
1923.546, 11.02352
1925.474, 10.86972
1927.402, 10.84059
1929.331, 10.82997
1931.259, 10.74627
1933.188, 10.73164
1935.116, 11.05910
1937.045, 10.96670
1938.973, 10.73554
1940.902, 11.07188
1942.830, 11.28198
1944.759, 11.14399
1946.687, 10.91987
1948.616, 10.88126
1950.544, 10.90692
1952.473, 10.78492
1954.401, 10.92211
1956.329, 10.83251
1958.258, 10.39168
1960.186, 10.45300
1962.115, 10.47374
1964.043, 10.47776
1965.972, 10.40884
1967.900, 10.33423
1969.829, 10.55263
1971.757, 10.63296
1973.686, 10.73213
1975.614, 10.68870
1977.543, 10.48311
1979.471, 10.49109
1981.400, 10.60788
1983.328, 10.49582
1985.256, 10.39137
1987.185, 10.46609
1989.113, 10.42323
1991.042, 10.39864
1992.970, 10.53734
1994.899, 10.36058
1996.827, 10.05318
1998.756, 10.12322
2000.684, 10.12368
2002.613, 10.22607
2004.541, 10.33692
2006.470, 10.23276
2008.398, 10.74752
2010.327, 11.16826
2012.255, 10.52636
2014.183, 9.802023
2016.112, 9.606874
2018.040, 9.713417
2019.969, 9.447615
2021.897, 9.057806
2023.826, 9.335668
2025.754, 9.656449
2027.683, 9.350046
2029.611, 9.226358
2031.540, 9.715240
2033.468, 10.13850
2035.397, 9.981613
2037.325, 9.538530
2039.254, 9.277961
2041.182, 9.336278
2043.110, 9.456491
2045.039, 9.583380
2046.967, 9.718500
2048.896, 9.696277
2050.824, 9.699753
2052.753, 9.612185
2054.681, 9.488138
2056.610, 9.377285
2058.538, 9.429426
2060.467, 9.841658
2062.395, 10.04115
2064.323, 9.667298
2066.252, 9.406567
2068.180, 9.308984
2070.109, 9.057242
2072.037, 9.366729
2073.966, 9.927784
2075.894, 9.578821
2077.823, 8.911248
2079.751, 9.018563
2081.680, 9.337619
2083.608, 9.453071
2085.537, 9.568664
2087.465, 9.686310
2089.394, 9.482367
2091.322, 9.450270
2093.250, 9.862417
2095.179, 9.835590
2097.107, 9.416479
2099.036, 9.155080
2100.964, 9.369837
2102.893, 9.290031
2104.821, 9.266590
2106.750, 9.626192
2108.678, 9.631773
2110.607, 9.355505
2112.535, 9.223389
2114.464, 9.414049
2116.392, 9.507299
2118.321, 9.551548
2120.249, 9.571026
2122.177, 9.538694
2124.106, 9.519541
2126.034, 9.506370
2127.963, 9.633970
2129.891, 9.510923
2131.820, 9.432072
2133.748, 9.123725
2135.677, 8.779306
2137.605, 8.873276
2139.534, 9.101143
2141.462, 9.360375
2143.391, 9.047509
2145.319, 8.910089
2147.248, 9.244032
2149.176, 9.281580
2151.104, 8.866288
2153.033, 8.974401
2154.961, 9.219158
2156.890, 9.141504
2158.818, 8.924435
2160.747, 8.577052
2162.675, 8.509843
2164.604, 8.641473
2166.532, 8.848688
2168.461, 9.290329
2170.389, 9.448328
2172.318, 8.805205
2174.246, 8.986432
2176.175, 9.475328
2178.103, 9.267741
2180.031, 8.835933
2181.960, 8.694534
2183.888, 8.986598
2185.817, 9.324880
2187.745, 9.145370
2189.674, 8.755801
2191.602, 8.861190
2193.531, 9.376902
2195.459, 9.429611
2197.388, 9.011746
2199.316, 8.886905
2201.245, 8.739656
2203.173, 8.605951
2205.102, 8.836461
2207.030, 9.084912
2208.958, 8.653527
2210.887, 8.266722
2212.815, 8.584972
2214.744, 8.900661
2216.672, 8.871155
2218.601, 8.701107
2220.529, 8.844858
2222.458, 8.640852
2224.386, 8.680366
2226.315, 9.212246
2228.243, 8.924402
2230.172, 8.554299
2232.100, 8.858467
2234.029, 8.912663
2235.957, 8.663969
2237.885, 8.593903
2239.814, 8.581208
2241.742, 8.646839
2243.671, 8.749269
2245.599, 8.681865
2247.528, 8.545918
2249.456, 8.567377
2251.385, 8.565679
2253.313, 8.502745
2255.242, 8.591835
2257.170, 8.851027
2259.099, 8.771832
2261.027, 8.431024
2262.956, 8.449400
2264.884, 8.569154
2266.813, 8.704103
2268.741, 8.651597
2270.669, 8.846819
2272.598, 9.189590
2274.526, 8.980753
2276.455, 8.785255
2278.383, 8.818965
2280.312, 8.769472
2282.240, 8.530104
2284.169, 8.164021
2286.097, 8.339160
2288.026, 8.760556
2289.954, 8.878157
2291.883, 8.788277
2293.811, 8.599807
2295.740, 8.274267
2297.668, 8.251005
2299.596, 8.420389
2301.525, 8.609829
2303.453, 8.654567
2305.382, 9.169382
2307.310, 9.531211
2309.239, 9.009718
2311.167, 8.765354
2313.096, 8.801407
2315.024, 8.795239
2316.953, 8.917083
2318.881, 8.879287
2320.810, 8.646864
2322.738, 8.511698
2324.667, 8.441877
2326.595, 8.733545
2328.523, 8.991384
2330.452, 8.721612
2332.380, 8.990777
2334.309, 9.264563
2336.237, 8.786145
2338.166, 8.337145
2340.094, 8.273563
2342.023, 8.563570
2343.951, 8.598761
2345.880, 7.805896
2347.808, 7.574368
2349.737, 8.439222
2351.665, 8.985914
2353.594, 8.558469
2355.522, 8.105206
2357.450, 8.626473
2359.379, 8.628093
2361.307, 8.123818
2363.236, 8.136454
2365.164, 8.243380
2367.093, 8.563023
2369.021, 8.353308
2370.950, 8.055072
2372.878, 8.214586
2374.807, 8.246921
2376.735, 8.203736
2378.664, 8.250082
2380.592, 8.291417
2382.521, 8.370417
2384.449, 8.681901
2386.377, 9.049550
2388.306, 8.954801
2390.234, 8.789721
2392.163, 8.797167
2394.091, 8.402522
2396.020, 8.319999
2397.948, 8.135501
2399.877, 8.353197
2401.805, 8.756537
2403.734, 8.797021
2405.662, 8.481431
2407.591, 8.280489
2409.519, 8.498878
2411.448, 8.710335
2413.376, 8.580996
2415.304, 8.145503
2417.233, 8.406733
2419.161, 8.513689
2421.090, 8.360629
2423.018, 8.563656
2424.947, 8.359342
2426.875, 8.198458
2428.804, 8.424748
2430.732, 8.462866
2432.661, 8.304839
2434.589, 8.170824
2436.518, 7.885648
2438.446, 8.386938
2440.375, 8.991048
2442.303, 8.575483
2444.231, 8.235922
2446.160, 8.117075
2448.088, 7.876729
2450.017, 7.842657
2451.945, 7.993964
2453.874, 7.895692
2455.802, 7.792962
2457.731, 7.875866
2459.659, 8.053662
2461.588, 8.292184
2463.516, 8.671169
2465.445, 8.554107
2467.373, 8.303599
2469.302, 8.435472
2471.230, 8.634219
2473.158, 8.541426
2475.087, 8.644346
2477.015, 8.877653
2478.944, 8.940918
2480.872, 8.874266
2482.801, 8.488241
2484.729, 8.318515
2486.658, 8.555548
2488.586, 8.623925
2490.515, 8.117174
2492.443, 8.004516
2494.372, 8.585017
2496.300, 8.914297
2498.229, 8.278137
2500.157, 8.149030
2502.085, 8.719682
2504.014, 8.500629
2505.942, 8.101115
2507.871, 8.340334
2509.799, 8.130658
2511.728, 7.953749
2513.656, 8.687773
2515.585, 8.797086
2517.513, 8.437201
2519.442, 8.080381
2521.370, 8.016123
2523.299, 8.597084
2525.227, 9.020924
2527.156, 8.730702
2529.084, 8.415637
2531.012, 8.643373
2532.941, 8.632332
2534.869, 8.399387
2536.798, 8.420225
2538.726, 8.235080
2540.655, 8.388231
2542.583, 8.484159
2544.512, 8.243362
2546.440, 8.427650
2548.369, 8.772058
2550.297, 8.723200
2552.226, 8.266593
2554.154, 8.014487
2556.083, 8.292500
2558.011, 8.964200
2559.939, 8.779007
2561.868, 8.599967
2563.796, 8.400813
2565.725, 8.034335
2567.653, 7.916388
2569.582, 8.444307
2571.510, 8.521631
2573.439, 8.105791
2575.367, 7.677092
2577.296, 7.915524
2579.224, 8.097938
2581.153, 8.423821
2583.081, 8.344499
2585.010, 7.846059
2586.938, 8.130937
2588.866, 8.408392
2590.795, 8.340799
2592.723, 8.647067
2594.652, 8.917535
2596.580, 8.655390
2598.509, 8.712423
2600.437, 8.591343
2602.366, 8.108259
2604.294, 8.234406
2606.223, 8.455346
2608.151, 8.178639
2610.080, 8.385574
2612.008, 8.736065
2613.937, 8.560037
2615.865, 8.477291
2617.793, 8.608188
2619.722, 8.748654
2621.650, 8.844046
2623.579, 8.133921
2625.507, 7.724637
2627.436, 8.270921
2629.364, 8.408007
2631.293, 8.343153
2633.221, 8.220128
2635.150, 8.269809
2637.078, 8.647474
2639.007, 8.828547
2640.935, 8.647951
2642.864, 8.601977
2644.792, 8.384559
2646.720, 8.649611
2648.649, 9.088614
2650.577, 8.929882
2652.506, 8.683877
2654.434, 8.521942
2656.363, 8.615543
2658.291, 8.468669
2660.220, 8.255683
2662.148, 8.360571
2664.077, 8.462084
2666.005, 8.502411
2667.934, 8.642679
2669.862, 8.785767
2671.791, 8.681065
2673.719, 8.263492
2675.647, 8.290960
2677.576, 8.292005
2679.504, 8.942190
2681.433, 8.754638
2683.361, 8.395576
2685.290, 8.545190
2687.218, 8.624073
2689.147, 8.628252
2691.075, 8.054530
2693.004, 8.110918
2694.932, 8.254454
2696.861, 8.011792
2698.789, 8.232560
2700.718, 8.452325
2702.646, 8.546906
2704.574, 8.708579
2706.503, 8.563673
2708.431, 8.545426
2710.360, 8.692220
2712.288, 8.461802
2714.217, 8.459492
2716.145, 8.166096
2718.074, 8.092206
2720.002, 8.302217
2721.931, 8.189523
2723.859, 7.973632
2725.788, 7.927071
2727.716, 8.361389
2729.645, 8.439182
2731.573, 8.571646
2733.501, 9.060128
2735.430, 8.938055
2737.358, 8.550440
2739.287, 8.508218
2741.215, 8.619829
2743.144, 8.764505
2745.072, 8.923382
2747.001, 8.632620
2748.929, 8.506963
2750.858, 8.591258
2752.786, 8.403402
2754.715, 8.566935
2756.643, 9.068095
2758.572, 8.657067
2760.500, 8.433497
2762.428, 8.669196
2764.357, 8.689704
2766.285, 8.053822
2768.214, 7.992097
2770.142, 8.878304
2772.071, 9.225346
2773.999, 8.925389
2775.928, 8.114548
2777.856, 8.306097
2779.785, 8.529169
2781.713, 8.493523
2783.642, 9.191645
2785.570, 9.007895
2787.499, 8.463388
2789.427, 8.580412
2791.355, 8.463476
2793.284, 8.520315
2795.212, 8.488921
2797.141, 7.865196
2799.069, 7.799967
2800.998, 8.228063
2802.926, 8.505507
2804.855, 8.702466
2806.783, 8.724532
2808.712, 8.277285
2810.640, 8.228136
2812.569, 8.637759
2814.497, 8.796873
2816.426, 9.126503
2818.354, 9.410784
2820.282, 8.941010
2822.211, 8.630652
2824.139, 8.583471
2826.068, 8.586878
2827.996, 8.418184
2829.925, 8.238501
2831.853, 8.389048
2833.782, 8.827921
2835.710, 8.925412
2837.639, 8.659414
2839.567, 8.432061
2841.496, 8.647657
2843.424, 8.713560
2845.353, 8.260527
2847.281, 8.086597
2849.209, 8.137224
2851.138, 8.610371
2853.066, 8.540178
2854.995, 8.288289
2856.923, 8.450914
2858.852, 8.620592
2860.780, 8.673855
2862.709, 8.489429
2864.637, 8.475907
2866.566, 8.361767
2868.494, 8.011986
2870.423, 7.686238
2872.351, 7.931426
2874.280, 8.030763
2876.208, 8.392965
2878.136, 8.808508
2880.065, 8.323516
2881.993, 8.323511
2883.922, 8.313950
2885.850, 9.145000
2887.779, 9.297303
2889.707, 8.335835
2891.636, 8.285707
2893.564, 8.146900
2895.493, 8.089362
2897.421, 8.170935
2899.350, 8.471453
2901.278, 8.229982
2903.207, 7.715176
2905.135, 7.859302
2907.063, 8.045996
2908.992, 8.122892
2910.920, 8.298270
2912.849, 7.954326
2914.777, 7.729197
2916.706, 8.068205
2918.634, 8.161478
2920.563, 8.182979
2922.491, 8.021814
2924.420, 7.951249
2926.348, 8.092295
2928.277, 8.186316
2930.205, 7.757428
2932.134, 8.171114
2934.062, 8.255367
2935.990, 7.802334
2937.919, 7.924243
2939.847, 7.847670
2941.776, 7.894842
2943.704, 8.134460
2945.633, 8.052912
2947.561, 8.098837
2949.490, 8.285963
2951.418, 8.619605
2953.347, 8.148929
2955.275, 7.549817
2957.204, 7.643028
2959.132, 8.020192
2961.061, 8.313048
2962.989, 8.157614
2964.917, 7.797250
2966.846, 7.884385
2968.774, 8.213678
2970.703, 7.852224
2972.631, 8.021875
2974.560, 8.126607
2976.488, 7.958039
2978.417, 7.967220
2980.345, 8.099577
2982.274, 8.226126
2984.202, 7.913527
2986.131, 7.689167
2988.059, 8.061859
2989.988, 8.726184
2991.916, 8.016818
2993.844, 8.031867
2995.773, 8.593762
2997.701, 8.853019
2999.630, 8.965720
3001.558, 9.062006
3003.487, 8.802950
3005.415, 8.772779
3007.344, 8.207314
3009.272, 7.944737
3011.201, 7.933434
3013.129, 8.276918
3015.058, 8.445157
3016.986, 8.139704
3018.915, 8.153505
3020.843, 8.040838
3022.771, 7.955901
3024.700, 7.974207
3026.628, 8.196493
3028.557, 8.269478
3030.485, 8.294325
3032.414, 8.757752
3034.342, 8.767102
3036.271, 8.542324
3038.199, 8.550966
3040.128, 8.332104
3042.056, 8.695473
3043.985, 8.986822
3045.913, 8.832412
3047.842, 8.223538
3049.770, 8.013736
3051.698, 8.143663
3053.627, 8.294250
3055.555, 8.049672
3057.484, 8.070596
3059.412, 8.480219
3061.341, 8.456724
3063.269, 8.805160
3065.198, 8.905451
3067.126, 8.594641
3069.055, 8.574869
3070.983, 8.732687
3072.912, 8.676347
3074.840, 8.224192
3076.769, 8.346048
3078.697, 8.270131
3080.625, 8.250639
3082.554, 8.529242
3084.482, 8.232847
3086.411, 8.111296
3088.339, 8.284681
3090.268, 8.430440
3092.196, 8.991796
3094.125, 8.931032
3096.053, 7.968664
3097.982, 8.409636
3099.910, 8.770763
3101.839, 8.776837
3103.767, 8.082955
3105.696, 8.587028
3107.624, 8.871889
3109.552, 8.525263
3111.481, 8.347775
3113.409, 8.473109
3115.338, 8.603128
3117.266, 8.832981
3119.195, 9.068777
3121.123, 8.465081
3123.052, 8.350288
3124.980, 8.565534
3126.909, 8.202342
3128.837, 8.280180
3130.766, 8.268472
3132.694, 7.977149
3134.623, 7.562688
3136.551, 7.168739
3138.479, 7.524975
3140.408, 8.878235
3142.336, 7.355035
3144.265, 7.348841
3146.193, 8.312978
3148.122, 8.190608
3150.050, 7.827958
3151.979, 7.844941
3153.907, 8.069700
3155.836, 6.999356
3157.764, 7.226324
3159.693, 7.703774
3161.621, 7.684637
3163.550, 7.520991
3165.478, 7.616586
3167.406, 7.492383
3169.335, 7.273435
3171.263, 6.785131
3173.192, 6.641159
3175.120, 7.298771
3177.049, 8.125293
3178.977, 7.566168
3180.906, 7.398809
3182.834, 7.524759
3184.763, 7.350325
3186.691, 7.504345
3188.620, 7.546539
3190.548, 7.186511
3192.477, 6.728301
3194.405, 7.203165
3196.333, 6.997511
3198.262, 6.707296
3200.190, 6.562271
3202.119, 6.835148
3204.047, 7.359857
3205.976, 7.334245
3207.904, 6.499583
3209.833, 6.759759
3211.761, 6.559123
3213.690, 6.539600
3215.618, 6.741476
3217.547, 6.440323
3219.475, 6.479805
3221.404, 6.581030
3223.332, 6.541387
3225.260, 6.647902
3227.189, 7.165339
3229.117, 6.597357
3231.046, 5.622080
3232.974, 6.727586
3234.903, 7.168084
3236.831, 7.380216
3238.760, 7.311575
3240.688, 6.632300
3242.617, 6.951204
3244.545, 7.149490
3246.474, 6.970557
3248.402, 6.487941
3250.331, 6.340939
3252.259, 6.216130
3254.187, 6.042586
3256.116, 6.199832
3258.044, 5.751323
3259.973, 6.180324
3261.901, 6.424658
3263.830, 5.304617
3265.758, 6.063359
3267.687, 6.204185
3269.615, 6.084740
3271.543, 6.220055
3273.472, 6.690155
3275.400, 6.586888
3277.329, 6.345840
3279.257, 6.134676
3281.186, 6.069737
3283.114, 6.772597
3285.043, 6.760680
3286.971, 6.364689
3288.900, 7.191431
3290.828, 6.429391
3292.757, 6.138903
3294.685, 6.483190
3296.614, 6.631158
3298.542, 6.965117
3300.470, 6.291233
3302.399, 5.750363
3304.327, 5.999793
3306.256, 6.255584
3308.184, 6.072853
3310.113, 5.879523
3312.041, 5.971427
3313.970, 6.267695
3315.898, 6.154084
3317.827, 6.109600
3319.755, 6.209276
3321.684, 5.939711
3323.612, 6.681561
3325.541, 6.306212
3327.469, 5.588702
3329.397, 5.653198
3331.326, 5.966126
3333.254, 6.246850
3335.183, 6.078393
3337.111, 5.739934
3339.040, 6.139220
3340.968, 6.791401
3342.897, 6.898493
3344.825, 6.641051
3346.754, 6.313693
3348.682, 5.480458
3350.611, 5.767138
3352.539, 5.632028
3354.468, 4.827150
3356.396, 5.920529
3358.324, 5.894604
3360.253, 5.753270
3362.181, 5.959939
3364.110, 5.999455
3366.038, 6.620113
3367.967, 6.582517
3369.895, 6.223598
3371.824, 5.936356
3373.752, 6.265845
3375.681, 5.789488
3377.609, 6.058143
3379.538, 6.619238
3381.466, 5.826031
3383.395, 5.407231
3385.323, 5.979393
3387.251, 6.320959
3389.180, 6.042560
3391.108, 7.067121
3393.037, 5.131677
3394.965, 5.086179
3396.894, 6.410768
3398.822, 6.195329
3400.751, 5.444865
3402.679, 5.886220
3404.608, 6.229671
3406.536, 5.881361
3408.465, 5.377765
3410.393, 6.195331
3412.322, 6.443651
3414.250, 6.037725
3416.178, 5.514040
3418.107, 4.892553
3420.035, 5.357533
3421.964, 6.207029
3423.892, 6.518740
3425.821, 5.843899
3427.749, 5.444776
3429.678, 5.537557
3431.606, 6.078114
3433.535, 6.628114
3435.463, 6.252437
3437.392, 5.662158
3439.320, 5.188155
3441.249, 5.343737
3443.177, 6.050306
3445.105, 5.627303
3447.034, 5.685256
3448.962, 6.338309
3450.891, 6.677438
3452.819, 5.957832
3454.748, 5.709862
3456.676, 6.140304
3458.605, 6.049459
3460.533, 5.774580
3462.462, 6.408793
3464.390, 6.386286
3466.319, 5.645852
3468.247, 5.772141
3470.176, 6.489234
3472.104, 5.759175
3474.032, 4.897434
3475.961, 5.814241
3477.889, 6.035663
3479.818, 4.973434
3481.746, 5.798886
3483.675, 5.254428
3485.603, 5.823061
3487.532, 6.421475
3489.460, 6.003995
3491.389, 4.934803
3493.317, 5.601904
3495.246, 5.616055
3497.174, 5.627062
3499.103, 5.943938
3501.031, 4.672854
3502.959, 5.194638
3504.888, 5.140220
3506.816, 4.935771
3508.745, 5.245144
3510.673, 5.525314
3512.602, 4.995694
3514.530, 5.006790
3516.459, 5.436082
3518.387, 5.613639
3520.316, 4.840959
3522.244, 4.886357
3524.173, 4.951618
3526.101, 4.671650
3528.030, 4.427052
3529.958, 5.187536
3531.886, 5.565528
3533.815, 5.353235
3535.743, 5.070668
3537.672, 4.966670
3539.600, 4.867364
3541.529, 4.656388
3543.457, 4.512599
3545.386, 4.773227
3547.314, 5.125411
3549.243, 4.935071
3551.171, 4.590188
3553.100, 5.426642
3555.028, 5.538635
3556.957, 4.983770
3558.885, 4.889526
3560.813, 5.388076
3562.742, 5.493844
3564.670, 5.284955
3566.599, 4.729849
3568.527, 4.317412
3570.456, 6.164681
3572.384, 5.743079
3574.313, 5.277347
3576.241, 4.784194
3578.170, 4.385516
3580.098, 5.079729
3582.027, 5.079650
3583.955, 5.119072
3585.884, 5.355613
3587.812, 5.386762
3589.740, 4.903605
3591.669, 5.117224
3593.597, 5.617755
3595.526, 5.321860
3597.454, 5.052101
3599.383, 5.390916
3601.311, 5.315530
3603.240, 5.116877
3605.168, 4.861921
3607.097, 5.202778
3609.025, 5.650193
3610.954, 5.256957
3612.882, 5.032224
3614.811, 5.475913
3616.739, 5.444794
3618.667, 5.054289
3620.596, 4.902054
3622.524, 5.612564
3624.453, 4.650394
3626.381, 4.473959
3628.310, 4.362639
3630.238, 4.474797
3632.167, 5.466295
3634.095, 4.914914
3636.024, 4.459911
3637.952, 4.002781
3639.881, 4.600406
3641.809, 5.716888
3643.738, 4.841298
3645.666, 4.581637
3647.594, 4.207561
3649.523, 4.399182
3651.451, 4.800534
3653.380, 4.936077
3655.308, 5.094908
3657.237, 4.647079
3659.165, 4.251390
3661.094, 4.555696
3663.022, 4.601584
3664.951, 3.782533
3666.879, 4.746332
3668.808, 5.255830
3670.736, 4.561578
3672.665, 4.095540
3674.593, 4.431296
3676.521, 5.019451
3678.450, 4.808769
3680.378, 4.890826
3682.307, 4.532405
3684.235, 4.491062
3686.164, 4.761710
3688.092, 4.763628
3690.021, 5.651742
3691.949, 4.333319
3693.878, 4.775393
3695.806, 4.676723
3697.735, 4.153539
3699.663, 5.445470
3701.592, 3.548222
3703.520, 4.307692
3705.448, 4.998092
3707.377, 4.833735
3709.305, 4.256134
3711.234, 3.843796
3713.162, 3.646893
3715.091, 4.294951
3717.019, 4.791505
3718.948, 4.160666
3720.876, 3.541553
3722.805, 4.063773
3724.733, 3.515792
3726.662, 4.380271
3728.590, 4.251967
3730.519, 4.512799
3732.447, 4.408269
3734.375, 3.519414
3736.304, 4.206708
3738.232, 3.710260
3740.161, 4.006715
3742.089, 4.338064
3744.018, 4.176985
3745.946, 4.146987
3747.875, 5.042015
3749.803, 4.400064
3751.732, 3.909215
3753.660, 4.200358
3755.589, 4.030595
3757.517, 3.724102
3759.446, 4.079493
3761.374, 3.616071
3763.302, 3.956146
3765.231, 3.936548
3767.159, 4.190407
3769.088, 4.111705
3771.016, 3.490596
3772.945, 3.310340
3774.873, 3.426781
3776.802, 3.512608
3778.730, 4.161923
3780.659, 3.797236
3782.587, 2.779889
3784.516, 2.774543
3786.444, 4.588496
3788.373, 4.683883
3790.301, 4.171197
3792.229, 3.978803
3794.158, 3.963097
3796.086, 4.091382
3798.015, 4.362329
3799.943, 3.707242
3801.872, 3.133668
3803.800, 3.945313
3805.729, 4.237506
3807.657, 3.596907
3809.586, 3.056857
3811.514, 3.455688
3813.443, 3.708416
3815.371, 3.269815
3817.300, 3.203829
3819.228, 3.150382
3821.156, 3.320932
3823.085, 3.894687
3825.013, 4.369410
3826.942, 3.285801
3828.870, 2.995893
3830.799, 3.808660
3832.727, 3.442754
3834.656, 2.757351
3836.584, 2.701672
3838.513, 2.816005
3840.441, 2.923424
3842.370, 3.278413
3844.298, 3.354913
3846.227, 2.912885
3848.155, 3.208654
3850.083, 4.012607
3852.012, 3.992064
3853.940, 3.164705
3855.869, 2.735275
3857.797, 2.901100
3859.726, 3.650687
3861.654, 3.614831
3863.583, 3.538599
3865.511, 3.917685
3867.440, 3.163829
3869.368, 3.205930
3871.297, 3.496459
3873.225, 4.269538
3875.154, 3.527077
3877.082, 2.952998
3879.010, 3.793732
3880.939, 4.585257
3882.867, 3.105869
3884.796, 3.119865
3886.724, 2.600621
3888.653, 2.273141
3890.581, 2.811492
3892.510, 3.065683
3894.438, 2.733572
3896.367, 3.031082
3898.295, 3.396824
3900.224, 3.036413
3902.152, 3.580623
3904.081, 2.808699
3906.009, 2.839388
3907.938, 3.128159
3909.866, 2.627079
3911.794, 2.984306
3913.723, 3.592775
3915.651, 2.169871
3917.580, 2.602252
3919.508, 3.109375
3921.437, 3.393645
3923.365, 3.187205
3925.294, 2.647672
3927.222, 2.754897
3929.151, 2.532155
3931.079, 2.645597
3933.008, 2.484040
3934.936, 3.153236
3936.865, 2.841387
3938.793, 2.447597
3940.721, 3.006336
3942.650, 3.422358
3944.578, 2.879115
3946.507, 1.484574
3948.435, 2.256260
3950.364, 2.502250
3952.292, 2.728386
3954.221, 2.454440
3956.149, 1.864613
3958.078, 1.863614
3960.006, 2.425954
3961.935, 2.715697
3963.863, 2.626294
3965.792, 2.742410
3967.720, 2.884964
3969.648, 2.443877
3971.577, 2.412857
3973.505, 2.900056
3975.434, 2.737625
3977.362, 2.431810
3979.291, 2.947135
3981.219, 2.575744
3983.148, 2.299198
3985.076, 2.446372
3987.005, 2.404666
3988.933, 1.842330
3990.862, 1.380954
3992.790, 1.732430
3994.719, 2.042814
3996.647, 2.195109
3998.575, 2.089952
4000.504, 1.162844
4002.432, 1.855433
4004.361, 1.999078
4006.289, 1.706088
4008.218, 1.851040
4010.146, 1.898572
4012.075, 1.560045
4014.003, 1.388415
4015.932, 2.027595
4017.860, 1.299703
4019.789, 1.772448
4021.717, 1.911034
4023.646, 1.577154
4025.574, 1.059658
4027.502, 1.019436
4029.431, 1.994650
4031.359, 1.352982
4033.288, 1.104017
4035.216, 2.096100
4037.145, 1.499237
4039.073, 1.120947
4041.002, 1.012397
4042.930, 0.3928877
4044.859, -8.1147090E-02
4046.787, 0.5551945
4048.716, 1.534757
4050.644, 1.043674
4052.573, 1.744869
4054.501, 1.541902
4056.429, 1.205726
4058.358, 1.379992
4060.286, 1.666423
4062.215, 2.006953
4064.143, 1.930760
4066.072, 1.197501
4068.000, 0.5137361
4069.929, 0.3831011
4071.857, 1.321689
4073.786, 1.499341
4075.714, 0.9679754
4077.643, 0.6019346
4079.571, 1.096540
4081.500, 1.368771
4083.428, 1.745047
4085.356, 1.838525
4087.285, 1.463172
4089.213, 2.464009
4091.142, 2.160234
4093.070, 0.8461980
4094.999, 0.2965558
4096.927, 1.747517
4098.855, 0.9021072
4100.784, 0.4524394
4102.712, 1.036768
4104.641, 1.521581
4106.569, 1.156975
4108.498, 0.9095212
4110.426, 1.743782
4112.355, 0.9703106
4114.283, 0.8199541
4116.212, 0.6354879
4118.140, -0.2520828
4120.069, 0.7309355
4121.997, 1.496142
4123.926, 0.8063575
4125.854, 0.3061863
4127.783, 0.1022019
4129.711, -0.1315777
4131.640, 0.2788688
4133.568, 1.049002
4135.497, 0.8283922
4137.425, 2.2823660E-02
4139.354, 0.8283809
4141.282, 0.5867175
4143.210, 0.8559071
4145.139, -0.1138712
4147.067, 0.2256034
4148.996, 0.4840434
4150.924, 1.120232
4152.853, 1.061923
4154.781, 0.1028358
4156.709, 0.7319267
4158.638, 1.165061
4160.566, 0.6958519
4162.495, 0.7634362
4164.423, 1.107365
4166.352, 1.597675
4168.280, 1.078571
4170.209, 0.4314192
4172.137, 0.2367503
4174.066, 0.9263401
4175.994, 1.193914
4177.923, 0.8813785
4179.851, 0.5608394
4181.780, 0.2769759
4183.708, 0.3871126
4185.637, 0.7137582
4187.565, 1.714693
4189.494, 0.9398528
4191.422, 0.3303607
4193.351, 0.4683249
4195.279, 0.6368684
4197.208, 0.7192726
4199.136, 0.3801464
4201.064, 0.4557204
4202.993, 0.8414372
4204.921, 0.7883474
4206.850, 0.5728580
4208.778, 0.4294128
4210.707, 0.1793976
4212.635, 0.3916340
4214.563, 0.3981525
4216.492, 0.8274921
4218.420, -0.1508295
4220.349, -0.3751445
4222.277, -0.5694540
4224.206, -0.1610558
4226.134, 0.1745770
4228.063, 0.2760299
4229.991, 0.8037217
4231.920, 1.161225
4233.848, 0.7928241
4235.777, 0.3545226
4237.705, 0.2492878
4239.634, 0.3766243
4241.562, 0.3680859
4243.491, 1.8554229E-02
4245.419, 1.401122
4247.348, 0.6009972
4249.276, 0.6717891
4251.205, 0.5393447
4253.133, 0.7887838
4255.062, 0.6436796
4256.990, 1.277097
4258.918, 0.8212978
4260.847, 0.9088354
4262.775, 1.376985
4264.704, 1.445310
4266.632, 0.7479275
4268.561, 0.7147294
4270.489, 0.6435920
4272.417, 0.8415173
4274.346, 1.239432
4276.274, 0.5740397
4278.203, 0.9189810
4280.131, 1.333974
4282.060, 0.9536446
4283.988, 0.5597287
4285.917, 0.8543760
4287.845, -0.2061917
4289.774, 0.2811861
4291.702, 0.9102375
4293.631, 0.6452640
4295.559, 0.3719990
4297.488, 0.8935376
4299.416, 1.275485
4301.345, 0.7994443
4303.273, 0.6698857
4305.202, -0.1840813
4307.130, 0.4772805
4309.059, 1.497410
4310.987, 0.8533694
4312.916, 0.5289931
4314.844, 1.293835
4316.772, 1.305525
4318.701, 0.7570077
4320.629, 0.9225774
4322.558, 0.7243665
4324.486, 0.9376319
4326.415, 0.5785290
4328.343, 0.6801872
4330.271, 0.5471951
4332.200, 0.7510012
4334.128, 2.028432
4336.057, 1.070307
4337.985, 1.553080
4339.914, 1.761566
4341.842, 0.9541577
4343.771, 0.3815488
4345.699, 0.2459261
4347.628, 0.3890513
4349.556, 1.061993
4351.485, 0.9955430
4353.413, 0.9360679
4355.342, 0.2041011
4357.270, 0.8497883
4359.199, 0.8435877
4361.127, 0.7172834
4363.056, 1.245538
4364.984, 0.9319738
4366.913, 0.8837197
4368.841, 0.9035260
4370.770, 0.4815083
4372.698, 0.9549186
4374.626, 0.8064885
4376.555, 0.7312630
4378.483, 0.8341423
4380.412, 0.6561458
4382.340, 0.4723989
