##NAMES=Magnetite
##RRUFFID=R061111
##IDEAL CHEMISTRY=Fe^2+^Fe^3+^_2_O_4_
##LOCALITY=near Scotia Talc mine, Barberton Mountain, Transvaal, South Africa
##OWNER=RRUFF
##SOURCE=Michael Scott
##DESCRIPTION=Black submetallic grains and octahedra associated with light green massive willemseite
##STATUS=The identification of this mineral is confirmed by single-crystal X-ray diffraction and chemical analysis.
##URL=rruff.info/R061111
##MEASURED CHEMISTRY=(Fe^2+^_0.51_Ni_0.48_Co_0.01_)_Î£=1_Fe^3+^_2_O_4_; trace amounts of Al; Fe^2+^ and Fe^3+^ splitted by charge balance
237.3030, 1120.441
239.2314, 1129.352
241.1599, 1130.132
243.0884, 1111.377
245.0168, 1098.993
246.9453, 1103.742
248.8738, 1110.983
250.8022, 1106.905
252.7307, 1097.309
254.6592, 1095.402
256.5876, 1102.986
258.5161, 1107.537
260.4446, 1105.440
262.3730, 1102.664
264.3015, 1101.207
266.2300, 1099.111
268.1584, 1092.434
270.0869, 1083.968
272.0154, 1081.997
273.9438, 1089.450
275.8723, 1091.063
277.8008, 1075.929
279.7292, 1067.310
281.6577, 1078.902
283.5862, 1094.145
285.5146, 1096.319
287.4431, 1089.732
289.3716, 1084.439
291.3000, 1080.793
293.2285, 1078.834
295.1570, 1076.844
297.0854, 1078.621
299.0139, 1088.785
300.9424, 1100.114
302.8708, 1105.958
304.7993, 1107.985
306.7278, 1109.288
308.6563, 1109.527
310.5847, 1111.554
312.5132, 1117.918
314.4417, 1122.707
316.3701, 1125.644
318.2986, 1125.481
320.2271, 1119.584
322.1555, 1110.382
324.0840, 1101.315
326.0125, 1092.093
327.9409, 1087.250
329.8694, 1096.659
331.7979, 1096.307
333.7263, 1074.348
335.6548, 1051.662
337.5833, 1041.491
339.5117, 1037.759
341.4402, 1032.576
343.3687, 1025.969
345.2971, 1020.390
347.2256, 1014.913
349.1541, 1012.692
351.0825, 1018.646
353.0110, 1021.775
354.9395, 1017.068
356.8679, 1007.920
358.7964, 994.1451
360.7249, 978.8714
362.6533, 974.5030
364.5818, 986.9923
366.5103, 988.9547
368.4387, 968.0810
370.3672, 954.6398
372.2957, 960.3373
374.2241, 968.6523
376.1526, 967.8327
378.0811, 964.0538
380.0095, 966.8393
381.9380, 975.9391
383.8665, 979.2806
385.7949, 974.6086
387.7234, 967.4664
389.6519, 953.0231
391.5803, 942.8790
393.5088, 943.4300
395.4373, 947.2359
397.3657, 948.5505
399.2942, 948.9272
401.2227, 953.3207
403.1511, 963.5169
405.0796, 963.1531
407.0081, 940.4338
408.9365, 927.2844
410.8650, 930.8829
412.7935, 936.5669
414.7219, 938.5431
416.6504, 940.2139
418.5789, 946.2225
420.5073, 953.5881
422.4358, 953.2947
424.3643, 943.4399
426.2927, 939.0980
428.2212, 944.1913
430.1497, 946.5854
432.0781, 942.4830
434.0066, 939.6923
435.9351, 944.3116
437.8635, 948.6743
439.7920, 944.4661
441.7205, 936.6389
443.6489, 937.8811
445.5774, 949.4595
447.5059, 952.7650
449.4343, 942.3375
451.3628, 936.9577
453.2913, 941.6636
455.2197, 944.3963
457.1482, 937.3916
459.0767, 930.9961
461.0051, 934.0729
462.9336, 941.0011
464.8621, 943.4325
466.7905, 941.6761
468.7190, 939.2908
470.6475, 935.7011
472.5759, 933.0847
474.5044, 930.8552
476.4329, 930.9948
478.3613, 937.1152
480.2898, 940.9894
482.2183, 936.9617
484.1467, 929.4694
486.0752, 922.3276
488.0037, 914.7814
489.9321, 903.3851
491.8606, 887.4962
493.7891, 878.0788
495.7175, 876.3552
497.6460, 875.8591
499.5745, 877.5959
501.5029, 876.4973
503.4314, 867.9658
505.3599, 859.9340
507.2883, 858.6738
509.2168, 859.0499
511.1453, 853.3098
513.0737, 844.6155
515.0022, 845.7000
516.9307, 858.0767
518.8591, 861.9485
520.7876, 855.2732
522.7161, 849.4681
524.6445, 846.7987
526.5730, 843.1634
528.5015, 833.0563
530.4299, 827.3937
532.3584, 834.5836
534.2869, 846.5458
536.2153, 857.5526
538.1438, 866.0048
540.0723, 865.9684
542.0007, 857.3887
543.9292, 853.5267
545.8577, 855.0988
547.7861, 855.9899
549.7146, 855.6657
551.6431, 854.3148
553.5715, 850.7619
555.5000, 848.4662
557.4285, 849.7057
559.3569, 852.1971
561.2854, 855.5761
563.2139, 858.3504
565.1423, 858.3275
567.0708, 855.5545
568.9993, 849.1442
570.9277, 838.8497
572.8562, 833.9468
574.7847, 836.0971
576.7131, 834.4482
578.6416, 825.1062
580.5701, 817.5026
582.4985, 815.6320
584.4270, 815.1938
586.3555, 814.1732
588.2839, 813.7751
590.2124, 816.2990
592.1409, 819.2363
594.0693, 817.0879
595.9978, 811.6838
597.9263, 812.2983
599.8547, 818.5117
601.7832, 820.9277
603.7117, 819.1199
605.6401, 813.1603
607.5686, 799.2455
609.4971, 794.2868
611.4255, 809.5776
613.3540, 824.0294
615.2825, 829.9960
617.2109, 832.2506
619.1394, 831.2248
621.0679, 830.2354
622.9963, 832.9398
624.9248, 838.6622
626.8533, 847.3416
628.7817, 857.9855
630.7102, 863.3374
632.6387, 863.6832
634.5671, 869.1616
636.4956, 880.9743
638.4241, 895.6672
640.3525, 914.4528
642.2810, 930.9060
644.2095, 946.5871
646.1379, 954.1509
648.0664, 937.5089
649.9949, 928.7393
651.9233, 954.7300
653.8518, 991.6049
655.7803, 1015.513
657.7087, 1032.220
659.6372, 1048.767
661.5657, 1067.453
663.4941, 1098.649
665.4226, 1140.085
667.3511, 1173.100
669.2795, 1196.211
671.2080, 1223.952
673.1365, 1260.302
675.0649, 1292.279
676.9934, 1318.089
678.9219, 1337.765
680.8503, 1352.691
682.7788, 1359.761
684.7073, 1362.647
686.6357, 1351.210
688.5642, 1310.719
690.4927, 1260.918
692.4211, 1219.174
694.3496, 1182.481
696.2781, 1147.508
698.2065, 1113.457
700.1350, 1076.320
702.0635, 1038.159
703.9919, 1008.452
705.9204, 987.3546
707.8489, 970.9218
709.7773, 960.3843
711.7058, 941.4961
713.6343, 907.2590
715.5627, 879.2302
717.4912, 862.5557
719.4197, 850.2207
721.3481, 848.6880
723.2766, 840.0685
725.2051, 807.8543
727.1335, 779.7685
729.0620, 775.1448
730.9905, 777.6329
732.9189, 775.1060
734.8474, 770.4150
736.7759, 765.1917
738.7043, 761.3441
740.6328, 765.1615
742.5613, 771.7648
744.4897, 767.6485
746.4182, 754.6378
748.3467, 743.3524
750.2751, 734.1571
752.2036, 722.9209
754.1321, 708.1654
756.0605, 699.7052
757.9890, 701.0601
759.9175, 700.9807
761.8459, 697.8184
763.7744, 694.1954
765.7029, 688.4963
767.6313, 685.4130
769.5598, 686.9647
771.4883, 689.8949
773.4167, 696.3177
775.3452, 699.3445
777.2737, 694.0226
779.2021, 685.4408
781.1306, 673.9528
783.0591, 664.3892
784.9875, 661.4232
786.9160, 663.1036
788.8445, 671.2539
790.7729, 679.4909
792.7014, 673.2396
794.6299, 659.8355
796.5583, 660.9457
798.4868, 672.8865
800.4153, 675.3465
802.3438, 668.4803
804.2722, 663.0021
806.2007, 659.1136
808.1292, 655.9587
810.0576, 653.2536
811.9861, 652.5136
813.9146, 655.9937
815.8430, 656.4905
817.7715, 653.6602
819.7000, 648.4520
821.6284, 635.4349
823.5569, 630.6093
825.4854, 643.8118
827.4138, 651.1605
829.3423, 641.7573
831.2708, 635.2902
833.1992, 643.2983
835.1277, 647.0883
837.0562, 633.7184
838.9846, 621.3943
840.9131, 620.9066
842.8416, 623.5665
844.7700, 622.6960
846.6985, 623.8408
848.6270, 636.0636
850.5554, 647.1181
852.4839, 642.8538
854.4124, 634.8393
856.3408, 638.2131
858.2693, 644.0997
860.1978, 637.6754
862.1262, 626.3682
864.0547, 624.2316
865.9832, 627.6808
867.9116, 628.8505
869.8401, 627.9867
871.7686, 624.5906
873.6970, 619.8394
875.6255, 620.2689
877.5540, 625.1334
879.4824, 628.4205
881.4109, 630.1209
883.3394, 629.7300
885.2678, 627.1548
887.1963, 627.3198
889.1248, 631.0591
891.0532, 627.4453
892.9817, 614.2068
894.9102, 612.0437
896.8386, 623.9852
898.7671, 626.7286
900.6956, 617.7501
902.6240, 608.2987
904.5525, 597.4446
906.4810, 598.4771
908.4094, 616.4389
910.3379, 624.8866
912.2664, 618.1876
914.1948, 612.9951
916.1233, 612.8298
918.0518, 609.6161
919.9802, 599.6924
921.9087, 596.8282
923.8372, 607.2418
925.7656, 611.6766
927.6941, 602.6053
929.6226, 597.9915
931.5510, 604.8650
933.4795, 609.3362
935.4080, 607.7631
937.3364, 601.8328
939.2649, 587.1676
941.1934, 581.4150
943.1218, 595.4044
945.0503, 606.3124
946.9788, 605.2878
948.9072, 603.1047
950.8357, 603.3484
952.7642, 603.0993
954.6926, 600.7172
956.6211, 598.9446
958.5496, 599.7971
960.4780, 599.5869
962.4065, 595.7844
964.3350, 592.6865
966.2634, 591.8536
968.1919, 591.9485
970.1204, 591.2011
972.0488, 593.2585
973.9773, 603.0705
975.9058, 610.3790
977.8342, 611.5709
979.7627, 609.2809
981.6912, 600.4039
983.6196, 594.5203
985.5481, 599.5950
987.4766, 601.8935
989.4050, 590.5745
991.3335, 583.8170
993.2620, 595.3473
995.1904, 602.5753
997.1189, 590.5482
999.0474, 582.2094
1000.976, 591.5179
1002.904, 598.0082
1004.833, 590.7635
1006.761, 584.6741
1008.690, 585.1862
1010.618, 587.5663
1012.547, 592.0641
1014.475, 595.1158
1016.404, 596.2663
1018.332, 594.5936
1020.260, 586.8286
1022.189, 581.0844
1024.117, 578.5150
1026.046, 580.2131
1027.974, 591.1245
1029.903, 598.4683
1031.831, 597.2451
1033.760, 595.6454
1035.688, 597.9367
1037.617, 595.4530
1039.545, 580.3891
1041.474, 571.7225
1043.402, 577.4935
1045.331, 579.5791
1047.259, 570.8775
1049.188, 568.7363
1051.116, 580.2957
1053.044, 586.3499
1054.973, 582.7852
1056.901, 579.3331
1058.830, 576.6118
1060.758, 574.7200
1062.687, 574.1630
1064.615, 572.1571
1066.544, 566.7704
1068.472, 568.8088
1070.401, 581.5227
1072.329, 585.6567
1074.258, 578.7855
1076.186, 577.3304
1078.115, 582.4904
1080.043, 582.2541
1081.971, 576.1716
1083.900, 575.5757
1085.828, 580.0889
1087.757, 575.9176
1089.685, 564.7585
1091.614, 565.7922
1093.542, 575.5327
1095.471, 572.3611
1097.399, 560.9269
1099.328, 559.1939
1101.256, 563.7182
1103.185, 564.6448
1105.113, 564.5806
1107.042, 571.2820
1108.970, 578.8932
1110.898, 577.2637
1112.827, 571.2123
1114.755, 563.3747
1116.684, 558.3854
1118.612, 562.6931
1120.541, 569.7316
1122.469, 576.8265
1124.398, 580.4706
1126.326, 576.7209
1128.255, 570.9758
1130.183, 563.9351
1132.112, 560.6048
1134.040, 567.3741
1135.969, 569.9962
1137.897, 560.0768
1139.825, 551.1370
1141.754, 546.0849
1143.682, 546.9894
1145.611, 558.3962
1147.539, 562.0399
1149.468, 550.9730
1151.396, 546.9799
1153.325, 554.3234
1155.253, 561.2938
1157.182, 568.3409
1159.110, 565.5717
1161.039, 551.6190
1162.967, 550.4752
1164.896, 561.2260
1166.824, 569.1486
1168.752, 573.5885
1170.681, 567.8749
1172.609, 557.0499
1174.538, 558.5289
1176.466, 565.1087
1178.395, 560.6404
1180.323, 553.4917
1182.252, 557.2017
1184.180, 562.6326
1186.109, 559.8942
1188.037, 555.5994
1189.966, 552.9162
1191.894, 552.9976
1193.823, 559.5434
1195.751, 562.6019
1197.679, 555.5771
1199.608, 552.3059
1201.536, 557.5493
1203.465, 564.6072
1205.393, 573.1776
1207.322, 575.8767
1209.250, 571.2198
1211.179, 563.6331
1213.107, 553.6990
1215.036, 555.1585
1216.964, 566.9147
1218.893, 568.8142
1220.821, 562.7781
1222.750, 555.9378
1224.678, 549.8202
1226.606, 547.0499
1228.535, 548.5435
1230.463, 559.2796
1232.392, 570.9014
1234.320, 575.4977
1236.249, 575.2886
1238.177, 567.4013
1240.106, 562.2020
1242.034, 566.9015
1243.963, 571.8408
1245.891, 575.9962
1247.820, 575.5171
1249.748, 567.5709
1251.677, 566.1633
1253.605, 573.7686
1255.533, 576.2260
1257.462, 572.8343
1259.390, 571.3358
1261.319, 571.9720
1263.247, 573.7384
1265.176, 576.7358
1267.104, 583.8731
1269.033, 589.9349
1270.961, 583.5103
1272.890, 575.1329
1274.818, 576.6494
1276.747, 579.7132
1278.675, 577.7593
1280.604, 576.8628
1282.532, 581.9613
1284.460, 584.2526
1286.389, 578.7765
1288.317, 578.5698
1290.246, 586.5521
1292.174, 590.0823
1294.103, 588.4326
1296.031, 586.4354
1297.960, 584.4241
1299.888, 582.9390
1301.817, 582.1100
1303.745, 582.4310
1305.674, 583.4177
1307.602, 585.2145
1309.531, 586.3607
1311.459, 585.3716
1313.387, 583.6414
1315.316, 581.5432
1317.244, 579.5016
1319.173, 576.9564
1321.101, 575.8168
1323.030, 576.4438
1324.958, 578.5504
1326.887, 582.7245
1328.815, 579.1763
1330.744, 570.0908
1332.672, 573.8278
1334.601, 583.7363
1336.529, 584.5363
1338.458, 581.0592
1340.386, 577.8166
1342.314, 574.3372
1344.243, 570.0318
1346.171, 565.8280
1348.100, 561.7285
1350.028, 558.5252
1351.957, 555.2048
1353.885, 557.1118
1355.814, 566.1301
1357.742, 568.7666
1359.671, 565.9774
1361.599, 569.2813
1363.528, 574.4531
1365.456, 568.1564
1367.385, 559.3436
1369.313, 561.5271
1371.241, 562.0560
1373.170, 550.5412
1375.098, 542.0073
1377.027, 543.2828
1378.955, 544.4497
1380.884, 543.0139
1382.812, 544.7455
1384.741, 550.2639
1386.669, 552.7482
1388.598, 552.0340
1390.526, 546.2740
1392.455, 537.8951
1394.383, 526.6464
1396.312, 521.0797
1398.240, 533.7722
1400.168, 545.1457
1402.097, 548.0927
1404.025, 545.6652
1405.954, 537.1899
1407.882, 535.2140
1409.811, 541.2758
1411.739, 538.9135
1413.668, 530.1447
1415.596, 524.6585
1417.525, 521.2022
1419.453, 517.4489
1421.382, 514.7505
1423.310, 514.1349
1425.239, 515.6064
1427.167, 521.1177
1429.095, 521.5979
1431.024, 514.6586
1432.952, 508.3802
1434.881, 504.1624
1436.809, 513.5027
1438.738, 527.7545
1440.666, 515.3832
1442.595, 498.4641
1444.523, 510.6486
1446.452, 524.6290
1448.380, 522.6790
1450.309, 516.5756
1452.237, 506.5904
1454.166, 506.2642
1456.094, 516.8817
1458.022, 514.5402
1459.951, 502.9069
1461.879, 504.5718
1463.808, 511.1944
1465.736, 510.0095
1467.665, 505.6075
1469.593, 498.3200
1471.522, 495.1068
1473.450, 500.7294
1475.379, 503.5422
1477.307, 502.2690
1479.236, 500.7828
1481.164, 498.8996
1483.093, 493.5323
1485.021, 487.3177
1486.949, 482.2389
1488.878, 481.7075
1490.806, 493.2869
1492.735, 501.3638
1494.663, 496.2011
1496.592, 497.1676
1498.520, 506.2899
1500.449, 506.7513
1502.377, 500.0697
1504.306, 492.9868
1506.234, 486.7795
1508.163, 480.7636
1510.091, 479.7397
1512.020, 493.1255
1513.948, 500.1437
1515.876, 490.3340
1517.805, 485.8223
1519.733, 487.1266
1521.662, 482.8557
1523.590, 476.7014
1525.519, 480.8601
1527.447, 486.7216
1529.376, 487.0352
1531.304, 484.6978
1533.233, 477.0202
1535.161, 477.7626
1537.090, 493.9132
1539.018, 487.2352
1540.947, 464.3763
1542.875, 463.0874
1544.803, 472.9210
1546.732, 485.8023
1548.660, 491.3655
1550.589, 479.0349
1552.517, 472.0594
1554.446, 479.7050
1556.374, 473.9378
1558.303, 456.7328
1560.231, 463.1104
1562.160, 478.1920
1564.088, 474.7738
1566.017, 465.8110
1567.945, 456.6763
1569.874, 451.7813
1571.802, 453.1170
1573.730, 454.8105
1575.659, 456.1504
1577.587, 453.6331
1579.516, 449.3377
1581.444, 448.6696
1583.373, 445.9814
1585.301, 434.6052
1587.230, 429.8195
1589.158, 436.6366
1591.087, 442.8926
1593.015, 446.9773
1594.944, 443.1459
1596.872, 438.2284
1598.801, 447.9293
1600.729, 457.3227
1602.657, 457.0811
1604.586, 455.0508
1606.514, 452.8009
1608.443, 449.6807
1610.371, 445.9330
1612.300, 443.2927
1614.228, 441.2785
1616.157, 438.7241
1618.085, 437.5640
1620.014, 439.9771
1621.942, 439.4016
1623.871, 434.8891
1625.799, 428.5046
1627.728, 423.9471
1629.656, 437.8622
1631.584, 450.8151
1633.513, 435.5401
1635.441, 426.1243
1637.370, 435.0236
1639.298, 438.3954
1641.227, 434.9994
1643.155, 435.6864
1645.084, 437.3698
1647.012, 433.4810
1648.941, 428.6961
1650.869, 424.3877
1652.798, 424.8479
1654.726, 431.2611
1656.655, 430.8582
1658.583, 425.0496
1660.511, 418.3083
1662.440, 414.3417
1664.368, 422.4336
1666.297, 423.0683
1668.225, 402.4103
1670.154, 401.9969
1672.082, 419.6242
1674.011, 422.0976
1675.939, 414.8448
1677.868, 399.1512
1679.796, 391.6358
1681.725, 409.8277
1683.653, 416.9501
1685.582, 409.4147
1687.510, 408.5993
1689.438, 410.7705
1691.367, 407.9834
1693.295, 402.7553
1695.224, 393.6701
1697.152, 389.6585
1699.081, 393.4375
1701.009, 395.7128
1702.938, 397.0755
1704.866, 401.1256
1706.795, 402.4513
1708.723, 393.2286
1710.652, 390.1607
1712.580, 401.8465
1714.509, 400.4761
1716.437, 390.4201
1718.365, 391.0347
1720.294, 393.1499
1722.222, 389.6162
1724.151, 383.3604
1726.079, 373.1526
1728.008, 376.0321
1729.936, 388.1360
1731.865, 392.7959
1733.793, 391.2827
1735.722, 381.3578
1737.650, 376.7323
1739.579, 382.1811
1741.507, 386.5568
1743.436, 389.0439
1745.364, 389.7091
1747.292, 386.9658
1749.221, 376.6502
1751.149, 371.5771
1753.078, 375.5478
1755.006, 373.4677
1756.935, 367.9807
1758.863, 370.2035
1760.792, 375.1596
1762.720, 380.7999
1764.649, 382.3653
1766.577, 378.9563
1768.506, 370.3191
1770.434, 360.5614
1772.363, 359.3730
1774.291, 361.3896
1776.219, 364.4993
1778.148, 365.1674
1780.076, 363.1732
1782.005, 362.1358
1783.933, 361.6763
1785.862, 360.1037
1787.790, 360.5783
1789.719, 366.9658
1791.647, 360.8135
1793.576, 344.1781
1795.504, 341.9033
1797.433, 347.8243
1799.361, 363.1160
1801.290, 362.5789
1803.218, 336.2504
1805.146, 332.9507
1807.075, 347.7609
1809.003, 359.5280
1810.932, 364.5781
1812.860, 355.7500
1814.789, 348.9979
1816.717, 346.4285
1818.646, 340.9193
1820.574, 336.0506
1822.503, 340.5503
1824.431, 343.7929
1826.360, 338.3279
1828.288, 334.8472
1830.217, 334.2336
1832.145, 340.4451
1834.073, 344.7063
1836.002, 337.1861
1837.930, 330.2368
1839.859, 325.9761
1841.787, 325.6346
1843.716, 327.9910
1845.644, 329.6612
1847.573, 332.4605
1849.501, 340.6800
1851.430, 341.2688
1853.358, 334.0138
1855.287, 324.1051
1857.215, 316.6919
1859.144, 316.1866
1861.072, 315.8706
1863.000, 314.5587
1864.929, 314.6613
1866.857, 315.4416
1868.786, 314.5180
1870.714, 315.3147
1872.643, 320.5455
1874.571, 320.6381
1876.500, 316.9903
1878.428, 314.6904
1880.357, 311.7916
1882.285, 307.2025
1884.214, 306.0337
1886.142, 308.6491
1888.071, 305.2035
1889.999, 300.3682
1891.927, 298.0776
1893.856, 301.7670
1895.784, 313.3896
1897.713, 314.1285
1899.641, 307.3820
1901.570, 302.2791
1903.498, 299.1056
1905.427, 297.0631
1907.355, 300.5472
1909.284, 306.3899
1911.212, 301.5922
1913.141, 296.9195
1915.069, 300.9295
1916.998, 297.8906
1918.926, 286.5181
1920.854, 284.3009
1922.783, 287.2985
1924.711, 293.0605
1926.640, 295.1626
1928.568, 291.6117
1930.497, 292.0901
1932.425, 293.1856
1934.354, 283.8569
1936.282, 280.8721
1938.211, 289.1951
1940.139, 284.7729
1942.068, 276.3427
1943.996, 282.9694
1945.925, 287.3095
1947.853, 282.5305
1949.781, 287.9033
1951.710, 296.0795
1953.638, 288.2878
1955.567, 281.5754
1957.495, 283.5492
1959.424, 283.5911
1961.352, 280.7642
1963.281, 282.9316
1965.209, 282.3626
1967.138, 269.4986
1969.066, 269.8058
1970.995, 275.8142
1972.923, 263.1635
1974.852, 252.5445
1976.780, 257.1462
1978.708, 262.3713
1980.637, 264.7672
1982.565, 259.1684
1984.494, 254.4130
1986.422, 251.5994
1988.351, 246.5469
1990.279, 241.5932
1992.208, 252.1288
1994.136, 260.8203
1996.065, 253.2382
1997.993, 252.0189
1999.922, 255.4719
2001.850, 247.9075
2003.779, 243.4484
2005.707, 250.1304
2007.635, 247.3053
2009.564, 238.4025
2011.492, 247.0690
2013.421, 254.1704
2015.349, 250.2114
2017.278, 244.5636
2019.206, 239.4836
2021.135, 236.7000
2023.063, 236.3547
2024.992, 243.0462
2026.920, 241.9508
2028.849, 235.7886
2030.777, 240.7316
2032.706, 241.3261
2034.634, 232.8781
2036.563, 232.6049
2038.491, 233.7803
2040.419, 229.8349
2042.348, 228.6476
2044.276, 229.0130
2046.205, 227.8362
2048.133, 228.4186
2050.062, 231.3258
2051.990, 231.9646
2053.919, 230.5041
2055.847, 226.9690
2057.776, 223.1150
2059.704, 217.4030
2061.633, 217.3171
2063.561, 223.8665
2065.490, 221.4071
2067.418, 217.7525
2069.346, 224.8096
2071.275, 224.9673
2073.203, 218.3331
2075.132, 216.6330
2077.060, 214.4518
2078.989, 207.8504
2080.917, 207.9744
2082.846, 212.2179
2084.774, 210.4288
2086.703, 206.0173
2088.631, 199.8355
2090.560, 199.0092
2092.488, 204.0372
2094.417, 213.7926
2096.345, 211.3719
2098.273, 200.6151
2100.202, 202.9844
2102.130, 207.1875
2104.059, 211.1699
2105.987, 211.0291
2107.916, 205.1732
2109.844, 200.8593
2111.773, 200.7441
2113.701, 202.5726
2115.630, 209.2984
2117.558, 215.5150
2119.487, 203.0765
2121.415, 191.6458
2123.344, 188.8995
2125.272, 181.5217
2127.200, 175.7959
2129.129, 181.5594
2131.057, 186.7732
2132.986, 187.8569
2134.914, 187.7335
2136.843, 188.2263
2138.771, 190.7257
2140.700, 190.7369
2142.628, 187.8520
2144.557, 179.1770
2146.485, 173.0157
2148.414, 173.7053
2150.342, 179.8599
2152.271, 183.6029
2154.199, 176.9332
2156.127, 169.3656
2158.056, 166.3617
2159.984, 172.6095
2161.913, 177.5660
2163.841, 177.6079
2165.770, 172.8660
2167.698, 168.7233
2169.627, 170.5592
2171.555, 172.2007
2173.484, 172.6424
2175.412, 171.0893
2177.341, 171.2741
2179.269, 173.9918
2181.198, 167.5033
2183.126, 159.4629
2185.054, 163.2387
2186.983, 167.1572
2188.911, 168.4427
2190.840, 165.7513
2192.768, 165.4108
2194.697, 172.3610
2196.625, 171.1726
2198.554, 167.1234
2200.482, 164.0328
2202.411, 161.8996
2204.339, 162.3380
2206.268, 165.7557
2208.196, 167.3352
2210.125, 163.2536
2212.053, 158.5961
2213.981, 156.6280
2215.910, 160.2375
2217.838, 158.1518
2219.767, 150.9239
2221.695, 156.0764
2223.624, 160.1278
2225.552, 152.8236
2227.481, 149.1871
2229.409, 148.7544
2231.338, 151.0806
2233.266, 150.9601
2235.195, 148.2874
2237.123, 148.1390
2239.052, 145.3546
2240.980, 136.8228
2242.908, 139.9827
2244.837, 147.6821
2246.765, 152.0874
2248.694, 150.7549
2250.622, 145.2323
2252.551, 144.1169
2254.479, 144.3073
2256.408, 144.6474
2258.336, 143.3524
2260.265, 142.2930
2262.193, 142.7248
2264.122, 146.2759
2266.050, 150.4436
2267.979, 147.5638
2269.907, 141.7688
2271.835, 135.0273
2273.764, 137.2013
2275.692, 139.5444
2277.621, 136.8799
2279.549, 130.3645
2281.478, 124.6488
2283.406, 129.7043
2285.335, 133.7370
2287.263, 134.1101
2289.192, 129.9032
2291.120, 128.2146
2293.049, 130.4211
2294.977, 130.0961
2296.906, 130.8022
2298.834, 136.8838
2300.762, 135.2102
2302.691, 129.4113
2304.619, 128.1458
2306.548, 127.4963
2308.476, 126.4061
2310.405, 125.3154
2312.333, 124.6527
2314.262, 123.5625
2316.190, 114.6128
2318.119, 109.4130
2320.047, 116.5716
2321.976, 120.9703
2323.904, 122.2603
2325.833, 121.6408
2327.761, 120.6160
2329.689, 119.1842
2331.618, 119.5445
2333.546, 119.9029
2335.475, 121.5345
2337.403, 120.2489
2339.332, 118.4885
2341.260, 118.1103
2343.189, 112.5513
2345.117, 108.5009
2347.046, 114.2862
2348.974, 116.2105
2350.903, 112.8714
2352.831, 112.0317
2354.760, 108.8005
2356.688, 101.6052
2358.616, 101.2631
2360.545, 102.9415
2362.473, 103.4432
2364.402, 109.5398
2366.330, 112.1168
2368.259, 108.1600
2370.187, 107.1791
2372.116, 107.4897
2374.044, 108.5983
2375.973, 108.0400
2377.901, 106.7563
2379.830, 102.2698
2381.758, 99.16530
2383.687, 102.9535
2385.615, 104.0270
2387.543, 98.76627
2389.472, 93.77264
2391.400, 92.65923
2393.329, 96.12356
2395.257, 102.2754
2397.186, 100.4572
2399.114, 96.21103
2401.043, 99.50381
2402.971, 102.6774
2404.900, 98.93919
2406.828, 96.04314
2408.757, 96.49960
2410.685, 96.85875
2412.614, 97.15154
2414.542, 93.60287
2416.470, 93.94847
2418.399, 95.33578
2420.327, 96.23392
2422.256, 96.91194
2424.184, 97.01519
2426.113, 92.91843
2428.041, 83.47567
2429.970, 85.24726
2431.898, 88.08036
2433.827, 88.00343
2435.755, 87.08660
2437.684, 85.13877
2439.612, 85.21846
2441.541, 83.64214
2443.469, 79.01576
2445.397, 81.95287
2447.326, 89.75745
2449.254, 94.54984
2451.183, 91.54182
2453.111, 88.47625
2455.040, 86.73376
2456.968, 84.65376
2458.897, 79.39384
2460.825, 78.76918
2462.754, 87.54548
2464.682, 89.39674
2466.611, 81.70609
2468.539, 83.09721
2470.468, 82.12798
2472.396, 75.78941
2474.324, 76.81824
2476.253, 78.14511
2478.181, 76.24583
2480.110, 71.00587
2482.038, 70.05518
2483.967, 69.59751
2485.895, 70.54801
2487.824, 72.89915
2489.752, 74.55665
2491.681, 70.03767
2493.609, 70.81509
2495.538, 76.83256
2497.466, 76.28685
2499.395, 71.19215
2501.323, 71.62819
2503.251, 73.17989
2505.180, 67.72936
2507.108, 67.01535
2509.037, 71.17662
2510.965, 73.60397
2512.894, 71.42693
2514.822, 73.04299
2516.751, 71.08186
2518.679, 64.15693
2520.608, 68.31589
2522.536, 67.52465
2524.465, 58.26307
2526.393, 65.20895
2528.322, 68.72230
2530.250, 64.63085
2532.178, 64.99364
2534.107, 66.17715
2536.035, 67.94630
2537.964, 65.94934
2539.892, 63.25154
2541.821, 59.40376
2543.749, 63.89650
2545.678, 65.33118
2547.606, 61.71606
2549.535, 60.82322
2551.463, 58.66034
2553.392, 56.56919
2555.320, 56.99677
2557.249, 57.55015
2559.177, 62.22837
2561.105, 65.17957
2563.034, 66.76741
2564.962, 65.73323
2566.891, 63.33662
2568.819, 61.26958
2570.748, 55.54333
2572.676, 54.54753
2574.605, 57.48804
2576.533, 53.97445
2578.462, 50.24983
2580.390, 54.49183
2582.319, 55.80876
2584.247, 52.83031
2586.176, 54.12209
2588.104, 53.65516
2590.032, 51.08329
2591.961, 50.04463
2593.889, 49.58349
2595.818, 50.16676
2597.746, 54.33865
2599.675, 55.75583
2601.603, 54.49512
2603.532, 48.87187
2605.460, 46.32882
2607.389, 51.57259
2609.317, 52.01917
2611.246, 51.02007
2613.174, 51.01621
2615.103, 49.12944
2617.031, 48.01835
2618.959, 46.64525
2620.888, 42.18689
2622.816, 44.13360
2624.745, 50.37914
2626.673, 48.67295
2628.602, 49.60165
2630.530, 51.39360
2632.459, 50.39152
2634.387, 47.85012
2636.316, 43.82366
2638.244, 49.74131
2640.173, 51.72186
2642.101, 46.72149
2644.030, 43.01064
2645.958, 43.74038
2647.886, 46.08175
2649.815, 44.75810
2651.743, 42.05228
2653.672, 38.20453
2655.600, 40.93460
2657.529, 38.58319
2659.457, 35.61742
2661.386, 40.22668
2663.314, 45.75450
2665.243, 44.34859
2667.171, 38.99010
2669.100, 41.70592
2671.028, 40.65840
2672.957, 38.02745
2674.885, 37.16254
2676.813, 37.93192
2678.742, 40.02931
2680.670, 42.60503
2682.599, 41.08714
2684.527, 39.72655
2686.456, 40.52011
2688.384, 42.04638
2690.313, 42.23048
2692.241, 36.47166
2694.170, 32.98715
2696.098, 31.41944
2698.027, 35.15915
2699.955, 40.98452
2701.884, 43.52606
2703.812, 41.55274
2705.740, 37.49166
2707.669, 34.94345
2709.597, 34.46848
2711.526, 33.28035
2713.454, 32.32792
2715.383, 32.20831
2717.311, 36.29123
2719.240, 35.26919
2721.168, 33.44487
2723.097, 34.47462
2725.025, 30.75449
2726.954, 27.69430
2728.882, 28.06150
2730.811, 30.86904
2732.739, 32.31546
2734.667, 31.03473
2736.596, 29.40385
2738.524, 29.57739
2740.453, 30.06915
2742.381, 26.34124
2744.310, 27.56229
2746.238, 30.35830
2748.167, 30.42430
2750.095, 28.48965
2752.024, 26.73960
2753.952, 26.25565
2755.881, 26.04415
2757.809, 27.19281
2759.738, 29.29823
2761.666, 31.25694
2763.594, 28.03513
2765.523, 23.00747
2767.451, 23.69315
2769.380, 22.34470
2771.308, 22.51660
2773.237, 27.55030
2775.165, 24.70496
2777.094, 24.20167
2779.022, 26.84080
2780.951, 25.32365
2782.879, 22.75103
2784.808, 21.43373
2786.736, 28.80962
2788.665, 24.95197
2790.593, 20.25803
2792.521, 23.62366
2794.450, 22.98328
2796.378, 24.88823
2798.307, 28.19894
2800.235, 26.00226
2802.164, 25.40487
2804.092, 24.31017
2806.021, 19.04674
2807.949, 22.06833
2809.878, 26.09819
2811.806, 22.10248
2813.735, 23.27503
2815.663, 22.38363
2817.592, 18.89886
2819.520, 22.51039
2821.448, 21.24383
2823.377, 17.49668
2825.305, 18.67510
2827.234, 22.57993
2829.162, 25.70016
2831.091, 22.59860
2833.019, 19.09587
2834.948, 18.82001
2836.876, 20.34668
2838.805, 18.28270
2840.733, 17.89873
2842.662, 18.13088
2844.590, 16.89792
2846.519, 17.63677
2848.447, 20.59837
2850.375, 19.26067
2852.304, 15.17372
2854.232, 15.76886
2856.161, 19.09368
2858.089, 15.23317
2860.018, 15.33263
2861.946, 16.26157
2863.875, 17.05354
2865.803, 17.81119
2867.732, 20.02831
2869.660, 20.63805
2871.589, 14.46074
2873.517, 13.55322
2875.446, 15.38056
2877.374, 17.85630
2879.302, 17.49809
2881.231, 18.91786
2883.159, 20.79735
2885.088, 14.98060
2887.016, 9.882657
2888.945, 11.29705
2890.873, 19.06852
2892.802, 15.98534
2894.730, 15.21588
2896.659, 16.87221
2898.587, 19.08882
2900.516, 15.36412
2902.444, 11.81859
2904.373, 16.67124
2906.301, 15.51300
2908.229, 13.24630
2910.158, 10.57693
2912.086, 7.740205
2914.015, 4.483410
2915.943, 5.516705
2917.872, 13.47954
2919.800, 12.48075
2921.729, 10.77396
2923.657, 14.94094
2925.586, 13.79058
2927.514, 11.57129
2929.443, 12.36762
2931.371, 12.11502
2933.300, 10.84276
2935.228, 9.526703
2937.156, 9.961078
2939.085, 9.435129
2941.013, 9.377406
2942.942, 12.92373
2944.870, 18.18362
2946.799, 14.24937
2948.727, 9.675389
2950.656, 6.994994
2952.584, 10.21331
2954.513, 12.83077
2956.441, 14.72830
2958.370, 12.96855
2960.298, 15.31778
2962.227, 15.54218
2964.155, 13.65475
2966.083, 15.90316
2968.012, 18.12569
2969.940, 15.55316
2971.869, 4.461695
2973.797, 2.429445
2975.726, 3.636669
2977.654, 4.950295
2979.583, 2.162523
2981.511, 11.50165
2983.440, 16.02169
2985.368, 10.29111
2987.297, 8.718858
2989.225, 12.87235
2991.154, 13.93856
2993.082, 7.310393
2995.010, 11.38804
2996.939, 10.39423
2998.867, 3.363425
3000.796, 3.927010
3002.724, 5.206953
3004.653, 2.816958
3006.581, 4.042082
3008.510, 12.48866
3010.438, 14.42569
3012.367, 8.588803
3014.295, 6.091583
3016.224, 7.615145
3018.152, 8.771553
3020.081, 7.322029
3022.009, 3.138153
3023.938, 10.96180
3025.866, 8.387671
3027.794, 1.488022
3029.723, 2.265743
3031.651, 8.701213
3033.580, 11.57216
3035.508, 8.759959
3037.437, 5.113256
3039.365, 9.511518
3041.294, 12.72486
3043.222, 9.031182
3045.151, 6.316856
3047.079, 7.418624
3049.008, 7.228724
3050.936, 0.1969852
3052.865, 3.941447
3054.793, 7.215737
3056.721, 3.582771
3058.650, 4.303801
3060.578, 4.902556
3062.507, -3.641106
3064.435, -6.594462
3066.364, 2.642010
3068.292, -2.555076
3070.221, -1.342819
3072.149, 8.424893
3074.078, 7.998981
3076.006, 3.779835
3077.935, 2.082432
3079.863, 2.166993
3081.792, 4.805047
3083.720, 3.010096
3085.648, -0.9138041
3087.577, -3.114938
3089.505, -1.368987
3091.434, 7.335962
3093.362, 13.61381
3095.291, 5.854535
3097.219, 2.950578
3099.148, 2.393569
3101.076, 3.431634
3103.005, 2.942159
3104.933, 3.526970
3106.862, 1.206052
3108.790, -1.842284
3110.719, 3.244438
3112.647, 13.12569
3114.575, 10.32682
3116.504, 2.334717
3118.432, 3.256983
3120.361, 3.942266
3122.289, 7.309247
3124.218, 11.07400
3126.146, 8.180409
3128.075, 7.210951
3130.003, 1.938364
3131.932, -2.078484
3133.860, 2.336044
3135.789, 0.2859074
3137.717, 2.145772
3139.646, 6.307463
3141.574, 4.641564
3143.502, 3.987823
3145.431, 6.627129
3147.359, 9.118896
3149.288, 9.558205
3151.216, 3.378940
3153.145, 0.4579757
3155.073, -1.3084340E-02
3157.002, 5.4918341E-02
3158.930, 2.562987
3160.859, 5.791237
3162.787, 7.751149
3164.716, 7.207755
3166.644, 3.595048
3168.573, 1.043516
3170.501, 0.4453211
3172.429, 1.432713
3174.358, 5.044866
3176.286, 3.434480
3178.215, -0.1986341
3180.143, -3.767062
3182.072, -0.7780775
3184.000, -0.4435631
3185.929, 1.103286
3187.857, 5.172631
3189.786, 10.01160
3191.714, 6.734206
3193.643, 4.221822
3195.571, 3.592486
3197.500, -6.334480
3199.428, 3.512599
3201.356, 7.628049
3203.285, 1.456286
3205.213, 6.4498931E-02
3207.142, -2.4994250E-02
3209.070, 0.7493469
3210.999, 2.868682
3212.927, 6.071855
3214.856, 5.373981
3216.784, 3.130459
3218.713, 2.718674
3220.641, 5.165356
3222.570, -3.574730
3224.498, 3.631166
3226.427, 8.890742
3228.355, 1.712894
3230.283, 3.267924
3232.212, -0.1593866
3234.140, -4.899321
3236.069, -5.762056
3237.997, 5.619193
3239.926, 8.425647
3241.854, 9.852177
3243.783, 9.536743
3245.711, 3.822681
3247.640, -2.383865
3249.568, -5.568137
3251.497, -5.534624
3253.425, -3.547680
3255.354, 4.356260
3257.282, 2.687751
3259.210, 0.1053563
3261.139, 1.503309
3263.067, 3.172494
3264.996, -1.335616
3266.924, 0.3384169
3268.853, 4.710397
3270.781, 1.883527
3272.710, -5.284693
3274.638, -4.935948
3276.567, -1.542070
3278.495, 0.3911691
3280.424, 2.324815
3282.352, -6.214342
3284.281, -7.769514
3286.209, -0.7576762
3288.137, 0.8314283
3290.066, 4.173516
3291.994, 6.813569
3293.923, 6.267547
3295.851, 2.931000
3297.780, 2.462792
3299.708, -1.019404
3301.637, -3.700111
3303.565, -3.325631
3305.494, 2.334110
3307.422, 0.9764346
3309.351, 2.020190
3311.279, 2.507744
3313.208, -0.5675274
3315.136, -5.831416
3317.064, 2.535756
3318.993, 1.668041
3320.921, -7.148409
3322.850, -0.5308102
3324.778, 0.1660535
3326.707, 2.848372
3328.635, 2.750974
3330.564, -1.797509
3332.492, -2.302850
3334.421, 3.775426
3336.349, 1.905266
3338.278, -6.488302
3340.206, -9.406538
3342.135, -6.390040
3344.063, -3.597171
3345.991, 0.2670525
3347.920, 4.338126
3349.848, 1.879482
3351.777, 4.132825
3353.705, 1.204413
3355.634, -2.666878
3357.562, -1.061495
3359.491, -0.5331551
3361.419, 0.6437786
3363.348, 2.237404
3365.276, 1.285067
3367.205, -7.741569
3369.133, -1.786486
3371.062, -2.685675
3372.990, -0.8830773
3374.918, 6.953354
3376.847, 7.054034
3378.775, 7.872063
3380.704, 4.400796
3382.632, 1.091609
3384.561, 1.136825
3386.489, -3.546874
3388.418, -6.256351
3390.346, -5.118251
3392.275, -3.535939
3394.203, -4.013397
3396.132, 2.263200
3398.060, -0.7283968
3399.989, -1.291867
3401.917, 1.753304
3403.845, 2.358606
3405.774, -6.878186
3407.702, -5.532295
3409.631, -1.614941
3411.559, -7.6208590E-03
3413.488, -1.834989
3415.416, -13.28218
3417.345, -3.692804
3419.273, 1.392319
3421.202, -2.660820
3423.130, -2.374309
3425.059, 1.063931
3426.987, -1.524347
3428.916, -2.418844
3430.844, -2.294783
3432.772, -6.493773
3434.701, 3.051663
3436.629, 3.511962
3438.558, 0.7332924
3440.486, -0.8831189
3442.415, -1.129861
3444.343, 5.804196
3446.272, -0.3307144
3448.200, -4.572102
3450.129, -1.325394
3452.057, 4.456625
3453.986, 4.162045
3455.914, -10.78978
3457.843, -10.79703
3459.771, 0.4792311
3461.699, 3.606581
3463.628, -3.561953
3465.556, 2.860603
3467.485, 2.019027
3469.413, -2.941208
3471.342, -2.471633
3473.270, -12.53971
3475.199, -0.9316368
3477.127, 8.508001
3479.056, 8.382972
3480.984, 2.448020
3482.913, 1.556852
3484.841, -5.214035
3486.770, -1.766848
3488.698, 5.046395
3490.626, 4.226887
3492.555, -11.65190
3494.483, -8.876980
3496.412, -1.622028
3498.340, -6.643178
3500.269, -13.88047
3502.197, -1.119688
3504.126, -5.314900
3506.054, -3.772204
3507.983, -1.951318
3509.911, -2.435467
3511.840, -3.416926
3513.768, -1.357350
3515.697, -0.3628777
3517.625, 6.603723
3519.553, 9.635215
3521.482, 2.748506
3523.410, -8.653157
3525.339, -4.945078
3527.267, -9.337039
3529.196, -3.221543
3531.124, 6.079457
3533.053, 1.280978
3534.981, -4.919530
3536.910, 2.442532
3538.838, 7.357458
3540.767, 3.992866
3542.695, -3.323816
3544.624, -5.325110
3546.552, -6.371205
3548.480, -5.602798
3550.409, -2.628583
3552.337, -0.2987906
3554.266, -0.1737747
3556.194, 5.217054
3558.123, 0.4846298
3560.051, 8.229476
3561.980, 3.013156
3563.908, -10.89467
3565.837, 3.650849
3567.765, 2.237474
3569.694, -3.835404
3571.622, -5.180582
3573.551, 2.360993
3575.479, 11.45642
3577.407, 0.1627447
3579.336, -9.202692
3581.264, -11.11196
3583.193, -2.718099
3585.121, 4.570115
3587.050, 0.6689514
3588.978, -7.028943
3590.907, -1.826028
3592.835, -6.182790
3594.764, -2.004653
3596.692, 6.362979
3598.621, 1.673833
3600.549, -2.573053
3602.478, 2.263008
3604.406, -3.343836
3606.334, -4.782438
3608.263, 2.844124
3610.191, 8.338059
3612.120, -3.400831
3614.048, -3.904027
3615.977, -5.103186
3617.905, -4.217464
3619.834, -1.062926
3621.762, -1.034389
3623.691, -9.618488
3625.619, -4.896832
3627.548, -3.408235
3629.476, -7.299726
3631.405, -7.200442
3633.333, 1.809706
3635.261, -3.825593
3637.190, 1.313346
3639.118, -3.740591
3641.047, -5.154211
3642.975, -0.1182994
3644.904, 3.362942
3646.832, 5.459593
3648.761, -1.586976
3650.689, -6.592774
3652.618, -1.440187
3654.546, -0.3697521
3656.475, -7.687929
3658.403, 7.027233
3660.332, -5.252134
3662.260, -5.104446
3664.188, -8.421554
3666.117, -6.340386
3668.045, 4.563892
3669.974, 7.804345
3671.902, 3.419961
3673.831, -6.197466
3675.759, -1.870479
3677.688, -0.2516231
3679.616, -3.307237
3681.545, 0.8308812
3683.473, 8.762500
3685.402, 2.446216
3687.330, 6.766716
3689.259, 7.898639
3691.187, 1.890541
3693.115, -3.942999
3695.044, -2.454034
3696.972, 1.492612
3698.901, 0.9739187
3700.829, 2.266847
3702.758, 0.2131967
3704.686, -5.051147
3706.615, -9.183210
3708.543, -11.45400
3710.472, -5.665737
3712.400, -10.18601
3714.329, -3.372643
3716.257, 4.081803
3718.186, 0.3640874
3720.114, -9.431870
3722.042, -6.177712
3723.971, -5.156523
3725.899, -4.140250
3727.828, -5.644264
3729.756, -6.445469
3731.685, -7.293068
3733.613, -11.78831
3735.542, -1.622611
3737.470, -7.6234609E-02
3739.399, 0.6802738
3741.327, 1.271442
3743.256, -6.858457
3745.184, -12.95762
3747.113, 2.845443
3749.041, -5.211970
3750.969, 3.826694
3752.898, 0.7366471
3754.826, -4.714316
3756.755, -4.585208
3758.683, -1.242012
3760.612, 0.7188165
3762.540, 2.469653
3764.469, -3.241558
3766.397, -5.520781
3768.326, -9.222838
3770.254, -6.806498
3772.183, -3.501915
3774.111, -8.552061
3776.040, -7.876420
3777.968, 1.047927
3779.896, -1.901138
3781.825, -6.224555
3783.753, -10.41846
3785.682, -4.257134
3787.610, 7.803183
3789.539, -2.256331
3791.467, -1.157139
3793.396, -6.819758
3795.324, -0.1219660
3797.253, 0.8877288
3799.181, -5.799985
3801.110, -9.556077
3803.038, -5.247088
3804.967, -3.736398
3806.895, -5.738508
3808.823, -4.789022
3810.752, 2.381913
3812.680, 6.127678
3814.609, -0.4538662
3816.537, -7.638910
3818.466, -0.2415361
3820.394, 3.721539
3822.323, -1.212815
3824.251, -11.83464
3826.180, -4.541586
3828.108, -1.831198
3830.037, -8.493247
3831.965, -10.86669
3833.894, -4.542747
3835.822, 1.489760
3837.750, -7.582250
3839.679, -6.679557
3841.607, 0.3721391
3843.536, 4.014371
3845.464, -1.133751
3847.393, -7.709475
3849.321, -5.559220
3851.250, -11.57932
3853.178, 3.459339
3855.107, -1.416356
3857.035, 1.174958
3858.964, -6.938767
3860.892, -7.258737
3862.821, 5.157978
3864.749, 6.635655
3866.677, -3.324279
3868.606, -5.531435
3870.534, 1.900732
3872.463, 11.42868
3874.391, -4.080846
3876.320, -9.101360
3878.248, -7.417453
3880.177, -14.51087
3882.105, -9.609487
3884.034, -9.397008
3885.962, 5.068487
3887.891, -5.349130
3889.819, -7.172579
3891.748, -6.857591
3893.676, -8.720557
3895.604, -5.304643
3897.533, -0.4133966
3899.461, -8.594886
3901.390, -0.2315780
3903.318, 0.7528443
3905.247, -11.05900
3907.175, -5.827037
3909.104, -7.129409
3911.032, -8.834692
3912.961, -6.336034
3914.889, -5.006614
3916.818, -1.447115
3918.746, -2.930417
3920.675, 2.727005
3922.603, -4.101741
3924.531, -5.797088
3926.460, -3.045601
3928.388, 1.531740
3930.317, 2.762915
3932.245, -2.215518
3934.174, -7.044250
3936.102, 0.7262451
3938.031, 3.735159
3939.959, 5.563275
3941.888, -1.850877
3943.816, -7.081806
3945.745, -1.726618
3947.673, -0.7917614
3949.602, 0.8756208
3951.530, 4.604277
3953.458, -7.063158
3955.387, -7.545931
3957.315, -6.196825
3959.244, -7.239160
3961.172, -1.145450
3963.101, -3.696892
3965.029, -8.567630
3966.958, -13.72508
3968.886, -8.558719
3970.815, 5.008057
3972.743, 5.150974
3974.672, -7.600205
3976.600, -3.097539
3978.529, 4.787778
3980.457, -4.189652
3982.385, -9.633513
3984.314, -5.341852
3986.242, -7.586938
3988.171, -5.139558
3990.099, 1.507022
3992.028, 1.0190130E-02
3993.956, 0.9403329
3995.885, 2.637637
3997.813, -6.375698
3999.742, -9.800897
4001.670, -5.022565
4003.599, 2.647422
4005.527, -2.479784
4007.456, 2.681902
4009.384, 8.287303
4011.313, -0.5679785
4013.241, -12.32243
4015.169, -11.69776
4017.098, -1.085359
4019.026, -7.118728
4020.955, -6.187829
4022.883, 2.039434
4024.812, 2.469698
4026.740, 1.162483
4028.669, 3.336701
4030.597, 1.339022
4032.526, -5.197149
4034.454, -9.241986
4036.383, -9.197119
4038.311, -7.717478
4040.240, -0.9353024
4042.168, 0.2727242
4044.096, -6.846116
4046.025, 0.7617116
4047.953, 7.465989
4049.882, 3.676306
4051.810, 1.554105
4053.739, -5.084733
4055.667, -7.553550
4057.596, -2.239088
4059.524, 1.787180
4061.453, 0.5234984
4063.381, -5.918956
4065.310, 0.7785473
4067.238, 0.3146501
4069.167, -2.168536
4071.095, -6.596320
4073.023, 0.4943610
4074.952, -1.766024
4076.880, 1.389493
4078.809, -1.324091
4080.737, -2.548476
4082.666, -2.326322
4084.594, -1.589835
4086.523, 2.012150
4088.451, -4.394427
4090.380, -1.292289
4092.308, 2.900825
4094.237, -4.967176
4096.165, -3.369943
4098.094, -2.586196
4100.022, -6.014063
4101.950, -3.532627
4103.879, -2.797672
4105.808, -8.502433
4107.736, -1.261338
4109.664, -2.045455
4111.593, -6.999996
4113.521, -0.1379141
4115.450, -3.144267
4117.378, -1.997437
4119.307, 3.453270
4121.235, -5.256769
4123.164, -3.442909
4125.092, 0.7815642
4127.021, -1.013900
4128.949, -3.150034
4130.877, -4.680435
4132.806, 2.327524
4134.734, 5.804438
4136.663, -0.4784293
4138.591, -0.7081467
4140.520, 1.941128
4142.448, -1.399257
4144.377, -3.807189
4146.305, -3.937016
4148.233, -5.126990
4150.162, 4.941715
4152.091, -3.757952
4154.019, -3.735196
4155.947, -4.800686
4157.876, -6.413836
4159.805, 3.278551
4161.733, 8.096964
4163.661, -4.619828
4165.590, -5.074554
4167.519, 1.338593
4169.447, 0.9544045
4171.375, 2.271899
4173.304, 2.173881
4175.232, 4.242208
4177.161, 3.149699
4179.089, -4.396996
4181.018, -2.278844
4182.946, 2.006269
4184.875, -2.956630
4186.803, -7.254929
4188.731, -6.193102
4190.660, 1.661917
4192.588, -2.935478
4194.517, -1.373170
4196.445, 5.018654
4198.374, -5.873720
4200.302, -12.28554
4202.230, 4.111995
4204.159, -3.351540
4206.088, -0.8472088
4208.016, -5.660730
4209.944, -5.898295
4211.873, -6.299428
4213.802, -6.302332
4215.730, -3.568144
4217.658, 1.419035
4219.587, 1.207633
4221.516, -4.621109
4223.444, -1.097411
4225.372, -1.016269
4227.301, -10.82469
4229.229, -6.699993
4231.158, 0.7432628
4233.086, 5.734268
4235.015, -1.827345
4236.943, 0.7288868
4238.872, -4.250977
4240.800, 2.275727
4242.729, 0.7655392
4244.657, -10.29933
4246.585, -7.246019
4248.514, -4.771902
4250.442, 1.151449
4252.371, -1.278524
4254.299, -0.1066206
4256.228, 1.810445
4258.156, -8.377207
4260.085, -12.07924
4262.013, -7.346759
4263.941, -2.964006
4265.870, -0.6942184
4267.799, -1.299892
4269.727, -10.88648
4271.655, -5.715870
4273.584, 2.434672
4275.513, -1.205022
4277.441, 4.789979
4279.369, -5.483539
4281.298, -14.34506
4283.227, 1.334851
4285.155, -8.745038
4287.083, -4.625968
4289.012, 0.7077146
4290.940, -2.560686
4292.869, -9.788800
4294.797, -9.771800
4296.726, -4.199317
4298.654, -0.7669458
4300.583, 6.433047