#\#CIF_2.0
#------------------------------------------------------------------------------
#$Date: 2018-01-23 18:50:32 +0200 (Tue, 23 Jan 2018) $
#$Revision: 363 $
#$URL: svn://172.16.1.102/rod/cif/1/00/00/1000001.rod $
#------------------------------------------------------------------------------
#
# This file is available in the Raman Open Database (ROD),
# http://solsa.crystallography.net/rod/
#
# All data on this site have been placed in the public domain by the
# contributors.
#
data_1000001
loop_
_publ_author_name
'El Mendili, Yassine'
'Bardeau, Jean-Fran\,cois'
'Randrianantoandro, Nirina'
'Grasset, Fabien'
'Greneche, Jean-Marc'
_publ_section_title
;
 Insights into the Mechanism Related to the Phase Transition from
 \a-Fe2O3 to \g-Fe2O3 Nanoparticles Induced by Thermal Treatment and
 Laser Irradiation
;
_journal_issue                   44
_journal_name_full               'Journal of Physical Chemistry C'
_journal_page_first              23785
_journal_page_last               23792
_journal_paper_doi               10.1021/jp308418x
_journal_volume                  116
_journal_year                    2012
_chemical_compound_source        Synthesized
_chemical_formula_structural     'Fe2 O3'
_chemical_formula_sum            'Fe2 O3'
_chemical_name_mineral           Hematite
_chemical_name_systematic        'iron(III) oxide'
_space_group_crystal_system      trigonal
_space_group_IT_number           167
_space_group_name_Hall           '-R 3 2"c'
_space_group_name_H-M_alt        'R -3 c :H'
_cell_angle_alpha                90
_cell_angle_beta                 90
_cell_angle_gamma                120
_cell_formula_units_Z            6
_cell_length_a                   5.03
_cell_length_b                   5.03
_cell_length_c                   13.75
_raman_determination_method      experimental
_[local]_chemical_compound_color red
_[local]_chemical_compound_state Solid
_raman_measurement_device.location 'IMMM Maine university'
_raman_measurement_device.company 'HORIBA Jobin Yvon'
_raman_measurement_device.model  T64000
_raman_measurement_device.optics_type microscope
_raman_measurement_device.microscope_system dispersive
_raman_measurement_device.microscope_objective_magnification 100
_raman_measurement_device.microscope_numerical_aperture 0.90
_raman_measurement_device.excitation_laser_type Argon-Krypton
_raman_measurement_device.excitation_laser_wavelength 514
_raman_measurement_device.configuration simple
_raman_measurement_device.resolution 3
_raman_measurement_device.power_on_sample 2
_raman_measurement_device.direction_polarization unoriented
_raman_measurement_device.spot_size 0.8
_raman_measurement_device.diffraction_grating 600
_raman_measurement.environment   Air
_raman_measurement.environment_details
;
 The sample was measured in air.
;
_raman_measurement.temperature   300
_raman_measurement.pressure      100
_raman_measurement.background_subtraction no
_raman_measurement.background_subtraction_details
;
 No background subtraction method was applied.
;
_raman_measurement.baseline_correction no
_raman_measurement.baseline_correction_details
;
 No baseline correction method was applied.
;
_raman_measurement.integration_time 600
_raman_measurement.range_min     44.7575
_raman_measurement.range_max     2223.81
_rod_data_source.file            YE0002.rod
_rod_data_source.block           1000001
_rod_database.code               1000001
loop_
_space_group_symop_id
_space_group_symop_operation_xyz
1 x,y,z
2 -y,x-y,z
3 -x+y,-x,z
4 y,x,-z+1/2
5 -x,-x+y,-z+1/2
6 x-y,-y,-z+1/2
7 -x,-y,-z
8 y,-x+y,-z
9 x-y,x,-z
10 -y,-x,z-1/2
11 x,x-y,z-1/2
12 -x+y,y,z-1/2
13 x+2/3,y+1/3,z+1/3
14 -y+2/3,x-y+1/3,z+1/3
15 -x+y+2/3,-x+1/3,z+1/3
16 y+2/3,x+1/3,-z+5/6
17 -x+2/3,-x+y+1/3,-z+5/6
18 x-y+2/3,-y+1/3,-z+5/6
19 -x+2/3,-y+1/3,-z+1/3
20 y+2/3,-x+y+1/3,-z+1/3
21 x-y+2/3,x+1/3,-z+1/3
22 -y+2/3,-x+1/3,z-1/6
23 x+2/3,x-y+1/3,z-1/6
24 -x+y+2/3,y+1/3,z-1/6
25 x+1/3,y+2/3,z+2/3
26 -y+1/3,x-y+2/3,z+2/3
27 -x+y+1/3,-x+2/3,z+2/3
28 y+1/3,x+2/3,-z+7/6
29 -x+1/3,-x+y+2/3,-z+7/6
30 x-y+1/3,-y+2/3,-z+7/6
31 -x+1/3,-y+2/3,-z+2/3
32 y+1/3,-x+y+2/3,-z+2/3
33 x-y+1/3,x+2/3,-z+2/3
34 -y+1/3,-x+2/3,z+1/6
35 x+1/3,x-y+2/3,z+1/6
36 -x+y+1/3,y+2/3,z+1/6
loop_
_raman_complementary.id
_raman_complementary.method
1 XRD
loop_
_raman_prediction.id
_raman_prediction.method
_raman_prediction.active_bands
_raman_prediction.mode_count
1 DFT 'A2u + 1Eu + 2A1g + 2A2u +  5Eg + 4Eu' 18
loop_
_raman_measurement_device_calibration.id
_raman_measurement_device_calibration.standard
1 Silicon_wafer
2 Diamond
loop_
_rod_related_entry.id
_rod_related_entry.code
_rod_related_entry.database
_rod_related_entry.uri
_rod_related_entry.description
1 1546383 COD http://www.crystallography.net/cod/1546383.html
;
 The structure contains the XRD analysis data.
;
loop_
_raman_spectrum.raman_shift
_raman_spectrum.intensity
44.7575 16019.1922
47.1607 16044.84844
49.5748 16070.6199
51.9888 16096.3895
54.4029 16122.1609
56.817 16147.9344
59.231 16173.7039
61.6451 16199.4734
64.0592 16225.2449
66.4732 16251.0145
68.8764 16272.8836
71.2904 16286.038
73.6936 16299.13
76.1076 16312.27
78.5108 16325.4
80.9248 16338.5
83.328 16351.6
85.7311 16364.69
88.1343 16377.78
90.5374 16390.872
92.9515 16404.0242
95.3546 16417.7859
97.7578 16417.4227
100.161 16399.90703
102.553 16382.4754
104.956 16434.44219
107.359 16512.0086
109.763 16575.3934
112.155 16584.196
114.558 16593.046
116.95 16601.85
119.353 16610.71
121.745 16619.507
124.149 16628.356
126.541 16637.1629
128.933 16563.534
131.325 16480.3406
133.718 16403.7508
136.11 16404.9246
138.502 16406.0984
140.894 16407.2664
143.286 16393.3348
145.679 16422.99688
148.071 16452.6473
150.463 16482.2938
152.844 16527.9051
155.237 16592.067
157.618 16655.9
160.01 16720.044
162.391 16783.882
164.784 16677.735
167.165 16487.9422
169.546 16381.7098
171.927 16397.282
174.32 16412.9246
176.701 16415.1883
179.082 16407.8582
181.464 16403.4109
183.845 16406.2176
186.215 16410.7703
188.597 16415.3445
190.978 16424.7508
193.359 16458.8992
195.73 16499.5789
198.111 16540.4324
200.481 16581.0984
202.862 16626.7098
205.233 16686.616
207.614 16746.774
209.985 16806.67852
212.355 16866.5574
214.725 16920.41875
217.096 17222.8562
219.477 17768.628
221.847 18813.612
224.218 22567.548
226.577 32013.741
228.947 38470.606
231.318 30448.606
233.688 21262.159
236.059 17351.9
238.418 17429.21
240.788 17506.888
243.148 17584.231
245.518 18245.262
247.878 19096.22539
250.237 18353.0809
252.608 17352.911
254.967 16977.835
257.326 16732.43633
259.686 16741.6648
262.045 16758.448
264.405 16781.0262
266.764 16849.714
269.124 16915.782
271.483 16977.032
273.843 16963.2137
276.202 16925.77227
278.551 17043.6883
280.91 17256.5145
283.269 17519.9734
285.618 18184.223
287.966 19145.7449
290.326 21616.5242
292.674 26374.1961
295.023 29531.2195
297.382 26817.516
299.731 24094.0652
302.079 23456.5691
304.428 21345.0965
306.777 19458.9246
309.125 18300.0496
311.474 17613.669
313.822 17465.5789
316.171 17125.8484
318.508 16878.6648
320.857 16814.2586
323.205 16733.2312
325.543 16651.9305
327.891 16602.5066
330.229 16554.3367
332.578 16552.1453
334.915 16547.9812
337.253 16537.8406
339.59 16527.70391
341.939 16524.2508
344.276 16512.55547
346.614 16511.0262
348.952 16510.5145
351.289 16510.15508
353.627 16515.3914
355.965 16519.3348
358.291 16523.25859
360.629 16529.4188
362.966 16532.19219
365.293 16540.8152
367.631 16550.21562
369.968 16559.61211
372.295 16564.7938
374.622 16567.8289
376.959 16576.6355
379.286 16596.5828
381.613 16618.7508
383.95 16626.13945
386.277 16634.1824
388.604 16641.0984
390.93 16652.948
393.257 16686.65312
395.584 16715.4207
397.91 16775.14922
400.226 16868.03789
402.553 17015.0184
404.879 17259.6609
407.195 17767.6277
409.522 18508.84648
411.849 19249.843
414.164 19753.4012
416.491 19022.0867
418.807 18242.0672
421.122 17555.74688
423.449 17134.4051
425.765 16962.5848
428.081 16787.9871
430.396 16687.3855
432.712 16669.72148
435.028 16633.18242
437.344 16614.6043
439.659 16595.4832
441.975 16590.5242
444.28 16597.36406
446.596 16599.6062
448.911 16595.8484
451.216 16592.1082
453.532 16588.34648
455.848 16585.23516
458.153 16593.575
460.458 16604.1375
462.773 16615.5906
465.078 16626.99102
467.383 16638.3953
469.688 16649.7977
471.993 16661.2039
474.308 16700.89336
476.613 16744.284
478.918 16790.6004
481.223 16837.9383
483.517 16944.31914
485.822 17060.2449
488.126 17186.4441
490.431 17434.5574
492.725 17696.7098
495.03 18023.2
497.324 18319.1922
499.629 18400.1258
501.923 18441.7996
504.227 18189.1648
506.521 17798.3934
508.815 17498.57891
511.109 17202.65703
513.414 17029.8895
515.708 16873.5242
518.002 16807.5164
520.296 16750.7293
522.59 16705.86016
524.884 16677.7195
527.167 16649.80742
529.461 16649.3406
531.754 16612.4012
534.048 16605.9402
536.331 16596.65312
538.625 16597.325
540.908 16598.20781
543.202 16599.71953
545.485 16601.9988
547.768 16605.4793
550.062 16606.99492
552.345 16603.8152
554.628 16603.37188
556.911 16605.95781
559.205 16619.284
561.488 16629.3426
563.771 16643.407
566.043 16656.5613
568.326 16669.7762
570.609 16682.99102
572.892 16696.2078
575.175 16704.1902
577.447 16708.7703
579.73 16710.2723
582.002 16709.69414
584.285 16716.06328
586.557 16728.10039
588.84 16740.452
591.112 16754.9441
593.384 16769.14531
595.667 16827.202
597.939 16906.1199
600.211 16988.0242
602.483 17094.577
604.755 17282.2508
607.027 17469.9188
609.299 17737.491
611.571 18034.2039
613.844 18069.1902
616.105 17982.46562
618.377 17723.71172
620.649 17435.8172
622.91 17230.874
625.182 17024.5535
627.443 16920.2547
629.715 16823.7977
631.976 16836.6043
634.248 16812.32891
636.51 16783.14141
638.771 16782.34648
641.032 16778.6746
643.293 16781.78398
645.565 16788.0359
647.815 16794.7996
650.087 16843.9695
652.338 16892.6863
654.599 16941.0691
656.86 16972.91875
659.121 16999.8484
661.371 17022.991
663.632 17038.83086
665.893 17016.0867
668.144 16992.2059
670.405 16967.18438
672.655 16930.7625
674.916 16889.28008
677.166 16861.2391
679.417 16847.69805
681.678 16830.44023
683.928 16807.42852
686.178 16784.55352
688.428 16764.4891
690.679 16749.3816
692.929 16717.29766
695.179 16697.52617
697.429 16696.2586
699.679 16697.4773
701.919 16698.6922
704.169 16699.9109
706.419 16701.1277
708.658 16702.34258
710.909 16703.5613
713.148 16704.7742
715.398 16705.993
717.637 16707.2039
719.888 16708.42461
722.127 16709.6395
724.366 16710.85039
726.606 16714.7469
728.856 16720.1727
731.095 16725.57109
733.334 16730.96953
735.574 16736.3719
737.813 16741.7684
740.052 16747.1648
742.281 16752.5398
744.52 16757.93828
746.759 16763.3348
748.998 16768.7332
751.227 16774.11016
753.466 16779.5066
755.695 16784.8816
757.934 16790.2801
760.162 16795.65117
762.391 16801.02227
764.63 16806.42461
766.858 16811.79375
769.087 16817.1688
771.315 16822.5398
773.554 16827.93633
775.783 16833.31328
778.011 16840.73516
780.239 16856.9969
782.457 16873.1805
784.685 16889.44219
786.914 16905.7078
789.142 16921.9715
791.37 16938.2273
793.588 16954.4168
795.816 16970.6746
798.034 16986.8641
800.262 17003.1219
802.479 17019.3035
804.708 17035.5691
806.925 17051.7469
809.143 17067.93438
811.371 17084.19609
813.588 17083.3465
815.806 17078.6531
818.023 17073.9637
820.241 17069.2703
822.458 17064.5789
824.676 17059.8895
826.893 17055.198
829.111 17050.5066
831.317 17045.8387
833.534 17041.1492
835.752 17036.4559
837.958 17031.7898
840.176 17027.0945
842.393 17022.405
844.6 17017.7371
846.817 17013.0457
849.024 17008.38
851.23 17003.7098
853.448 16999.0184
855.654 16994.3523
857.861 16989.6844
860.067 16985.01836
862.274 16980.3484
864.48 16975.6805
866.687 16972.27617
868.893 16981.0418
871.1 16989.81523
873.307 16998.5867
875.502 17007.31133
877.709 17016.08281
879.915 17024.85234
882.111 17033.5789
884.317 17042.34648
886.513 17051.075
888.719 17059.8426
890.915 17068.57109
893.122 17077.34453
895.317 17086.0691
897.513 17094.7957
899.708 17103.5184
901.904 17112.2488
904.11 17121.0145
906.306 17131.4988
908.502 17143.7957
910.697 17156.0848
912.893 17168.3816
915.077 17180.6121
917.273 17192.909
919.469 17205.2039
921.664 17217.49297
923.849 17229.7273
926.045 17242.02617
928.229 17254.2527
930.425 17266.5477
932.62 17278.8387
934.805 17291.075
936.99 17303.3074
939.185 17315.5984
941.37 17327.83477
943.555 17331.4969
945.739 17333.6727
947.924 17335.8484
950.109 17338.0281
952.293 17340.2059
954.478 17342.3836
956.663 17344.563
958.847 17346.7391
961.032 17348.9168
963.206 17351.0828
965.391 17353.2586
967.575 17355.43633
969.76 17355.7
971.934 17352.05352
974.118 17348.38945
976.292 17344.743
978.466 17341.1062
980.651 17337.4441
982.824 17333.7957
984.998 17330.159
987.172 17326.5125
989.356 17322.8465
991.53 17319.2
993.704 17315.55352
995.878 17311.9168
998.051 17318.00469
1000.23 17327.1473
1002.39 17336.2137
1004.56 17345.3191
1006.74 17354.4695
1008.91 17363.575
1011.07 17372.6414
1013.25 17381.7918
1015.41 17390.8484
1017.58 17411.9109
1019.76 17459.7098
1021.92 17507.06914
1024.08 17554.4285
1026.26 17602.2273
1028.42 17649.3445
1030.58 17692.4285
1032.74 17735.5066
1034.91 17778.7859
1037.07 17821.8641
1039.23 17864.9441
1041.4 17908.2254
1043.56 17951.3035
1045.72 17994.3836
1047.88 18037.4598
1050.05 18080.741
1052.2 18123.618
1054.36 18140.66484
1056.52 18126.782
1058.68 18112.9031
1060.84 18099.0242
1062.99 18085.2078
1065.15 18071.3289
1067.31 18057.45
1069.46 18043.6355
1071.62 18029.7547
1073.77 18015.9383
1075.92 18002.1219
1078.08 17988.241
1080.23 17974.4285
1082.38 17960.6141
1084.53 17946.7996
1086.68 17941.032
1088.84 17939.5945
1090.99 17938.1668
1093.14 17936.73516
1095.29 17935.30352
1097.43 17933.8719
1099.58 17932.4402
1101.73 17931.0105
1103.88 17929.5789
1106.02 17928.15508
1108.17 17926.7254
1110.31 17925.2918
1112.46 17923.86211
1114.6 17912.2625
1116.74 17899.7645
1118.89 17881.7
1121.04 17862.1766
1123.18 17842.743
1125.32 17823.3113
1127.46 17803.87773
1129.6 17784.4363
1131.74 17768.825
1133.87 17758.7938
1136.01 17748.7137
1138.15 17738.6238
1140.3 17728.49492
1142.43 17718.46172
1144.57 17708.75273
1146.71 17725.1707
1148.84 17741.5242
1150.97 17757.8777
1153.11 17774.3055
1155.24 17790.659
1157.38 17807.07891
1159.51 17828.8895
1161.64 17854.2195
1163.77 17879.5516
1165.91 17903.3719
1168.04 17924.6375
1170.17 17945.9148
1172.3 17967.1902
1174.43 17988.4676
1176.55 18009.6355
1178.68 18030.9129
1180.81 18052.1902
1182.94 18073.4656
1185.07 18094.7312
1187.19 18115.909
1189.32 18137.186
1191.44 18158.3621
1193.57 18173.2801
1195.69 18182.9207
1197.82 18192.6082
1199.94 18202.2488
1202.06 18211.88945
1204.19 18221.5672
1206.31 18231.2078
1208.42 18240.80156
1210.54 18250.43242
1212.66 18260.07695
1214.78 18276.1863
1216.9 18293.18242
1219.02 18310.1688
1221.14 18327.1648
1223.26 18362.2332
1225.38 18410.4402
1227.49 18458.407
1229.61 18506.616
1231.72 18554.59258
1233.83 18602.5711
1235.95 18655.4598
1238.06 18744.2918
1240.18 18833.5359
1242.29 18922.3621
1244.41 19011.5965
1246.51 19100.003
1248.62 19188.825
1250.73 19277.6473
1252.85 19366.8895
1254.96 19462.8504
1257.07 19566.4598
1259.17 19671.575
1261.28 19781.4617
1263.39 19891.3445
1265.5 20001.2312
1267.6 20110.59648
1269.7 20219.96
1271.81 20329.8523
1273.92 20439.7352
1276.02 20549.0984
1278.13 20709.2566
1280.22 20893.3016
1282.33 21079.114
1284.43 21264.0516
1286.54 21460.2762
1288.64 21676.8582
1290.73 21892.421
1292.84 22110.0477
1294.94 22326.6414
1297.04 22656.2176
1299.13 22985.6434
1301.23 23316.645
1303.33 23647.63945
1305.42 23977.0848
1307.52 24605.4734
1309.62 25266.835
1311.72 25688.5711
1313.81 26056.2273
1315.9 26277.6492
1318 26411.4949
1320.09 26466.1082
1322.18 26296.255
1324.28 26125.591
1326.38 25954.9344
1328.46 25662.384
1330.55 25235.5418
1332.65 24759.64727
1334.73 24288.304
1336.82 23814.6902
1338.92 23338.7703
1341 22867.4246
1343.09 22413.4188
1345.17 22098.4656
1347.26 21782.024
1349.35 21465.58477
1351.43 21205.706
1353.52 20954.528
1355.61 20703.352
1357.68 20472.518
1359.77 20253.245
1361.85 20035.02
1363.94 19815.7508
1366.02 19597.5145
1368.1 19389.56719
1370.18 19278.3289
1372.26 19167.08672
1374.34 19055.8543
1376.43 18944.70781
1378.5 18834.7703
1380.58 18724.3113
1382.65 18614.3797
1384.74 18530.0164
1386.81 18482.36211
1388.89 18434.4832
1390.97 18386.5926
1393.04 18339.1883
1395.12 18298.8914
1397.19 18258.7801
1399.27 18218.4793
1401.34 18178.3777
1403.41 18138.2625
1405.48 18098.1609
1407.56 18057.8602
1409.62 18017.94023
1411.7 17983.64141
1413.77 17968.60234
1415.84 17953.5594
1417.9 17938.5965
1419.98 17923.4871
1422.04 17908.5125
1424.12 17893.4051
1426.18 17878.44023
1428.25 17867.2781
1430.31 17859.6473
1432.38 17851.97734
1434.45 17844.3016
1436.52 17836.6297
1438.57 17829.0262
1440.63 17821.3953
1442.7 17813.7254
1444.76 17806.08281
1446.83 17803.00469
1448.89 17801.94609
1450.95 17800.88945
1453.01 17799.825
1455.07 17798.7684
1457.13 17797.7
1459.19 17796.64531
1461.25 17795.5887
1463.31 17794.52227
1465.36 17793.4715
1467.43 17792.409
1469.48 17791.34844
1471.54 17790.2918
1473.59 17789.24102
1475.64 17788.1805
1477.71 17787.118
1479.76 17786.05938
1481.81 17785.00664
1483.87 17789.85234
1485.92 17794.8074
1487.98 17799.79961
1490.02 17804.743
1492.07 17809.698
1494.13 17814.6883
1496.18 17819.6453
1498.22 17824.58867
1500.28 17829.577
1502.32 17834.5105
1504.37 17839.4773
1506.41 17840.2586
1508.47 17840.368
1510.51 17840.4832
1512.56 17840.6004
1514.61 17840.7078
1516.65 17840.825
1518.69 17840.9324
1520.75 17841.048
1522.79 17841.1648
1524.83 17841.2723
1526.87 17841.3895
1528.92 17841.495
1530.96 17841.614
1532.99 17841.7273
1535.03 17841.837
1537.08 17841.9539
1539.12 17842.0594
1541.16 17842.1746
1543.19 17842.28398
1545.24 17842.3992
1547.27 17842.5164
1549.31 17842.62188
1551.34 17842.741
1553.38 17842.8562
1555.42 17837.5984
1557.46 17820.2547
1559.49 17802.9852
1561.52 17785.7254
1563.55 17768.4656
1565.6 17751.0262
1567.63 17733.7684
1569.66 17716.5086
1571.69 17699.2391
1573.72 17681.9695
1575.76 17663.24492
1577.79 17639.80938
1579.81 17616.4832
1581.84 17593.0535
1583.87 17569.61016
1585.9 17546.1766
1587.92 17522.8602
1589.96 17499.3016
1591.98 17475.9852
1594.01 17452.5418
1596.03 17431.12188
1598.06 17425.9148
1600.08 17420.7254
1602.11 17415.5203
1604.13 17410.3289
1606.16 17405.1238
1608.18 17399.9344
1610.21 17394.7273
1612.23 17389.548
1614.25 17384.3582
1616.27 17379.1785
1618.29 17373.989
1620.31 17368.809
1622.33 17363.6199
1624.34 17358.4656
1626.36 17353.286
1628.38 17348.096
1630.41 17342.889
1632.42 17337.727
1634.44 17332.546
1636.46 17327.356
1638.47 17322.202
1640.49 17317.022
1642.5 17311.858
1644.52 17306.679
1646.53 17301.514
1648.54 17296.36
1650.56 17291.1805
1652.57 17286.016
1654.58 17280.852
1656.59 17275.7
1658.6 17270.5457
1660.61 17265.3816
1662.62 17260.2273
1664.63 17255.0633
1666.64 17249.909
1668.65 17244.7449
1670.66 17239.5906
1672.67 17234.4363
1674.67 17229.2996
1676.68 17224.1434
1678.69 17218.9812
1680.69 17213.8523
1682.7 17208.6883
1684.69 17203.5867
1686.7 17198.4227
1688.7 17193.2957
1690.71 17188.1316
1692.71 17183.0027
1694.71 17177.866
1696.72 17172.7117
1698.72 17167.5711
1700.72 17162.4422
1702.72 17157.3152
1704.72 17152.1766
1706.72 17147.04961
1708.72 17141.91094
1710.71 17136.8094
1712.71 17131.6707
1714.71 17126.5438
1716.71 17121.4051
1718.7 17116.3016
1720.7 17111.1746
1722.7 17106.0359
1724.69 17100.9324
1726.68 17095.8211
1728.68 17090.6922
1730.67 17085.57891
1732.67 17080.45195
1734.66 17075.3406
1736.65 17070.2273
1738.65 17065.0984
1740.63 17060.0242
1742.62 17054.91094
1744.61 17049.7996
1746.61 17044.6688
1748.6 17039.6961
1750.58 17037.93828
1752.57 17036.18242
1754.56 17034.4148
1756.55 17032.657
1758.54 17030.8914
1760.51 17029.15312
1762.5 17027.3875
1764.49 17025.62969
1766.48 17023.8641
1768.46 17022.118
1770.44 17020.3602
1772.42 17018.61211
1774.41 17016.8465
1776.4 17015.0906
1778.37 17013.3426
1780.35 17011.5945
1782.34 17009.827
1784.32 17008.0809
1786.29 17006.34258
1788.28 17004.575
1790.26 17002.8172
1792.24 17001.07305
1794.21 16999.3211
1796.19 16997.577
1798.17 16995.82891
1800.14 16994.0789
1802.12 16992.323
1804.1 16990.575
1806.08 16988.81914
1808.05 16987.0789
1810.02 16985.3309
1812 16983.5828
1813.97 16981.8348
1815.94 16980.0984
1817.92 16978.3387
1819.89 16976.60039
1821.86 16974.85234
1823.83 16973.1141
1825.8 16971.36602
1827.77 16969.62773
1829.75 16967.86992
1831.71 16966.1414
1833.68 16964.39336
1835.64 16962.6629
1837.61 16960.9168
1839.59 16959.1688
1841.55 16957.42852
1843.52 16955.6785
1845.49 16953.9422
1847.45 16952.21172
1849.41 16950.47344
1851.37 16949.0555
1853.34 16949.5594
1855.31 16950.0496
1857.27 16950.5496
1859.23 16951.03984
1861.19 16951.53984
1863.16 16952.032
1865.12 16952.532
1867.08 16953.02227
1869.04 16953.52031
1870.99 16954.0086
1872.96 16954.5125
1874.91 16954.9988
1876.87 16955.5008
1878.84 16955.993
1880.79 16956.4793
1882.75 16956.9793
1884.7 16957.4676
1886.66 16957.9676
1888.61 16958.4539
1890.57 16958.9559
1892.52 16959.4422
1894.48 16959.9441
1896.43 16960.4285
1898.39 16960.9305
1900.34 16961.4168
1902.29 16961.9168
1904.24 16962.4031
1906.2 16962.8934
1908.14 16963.3875
1910.1 16963.8777
1912.04 16964.3719
1914 16964.8641
1915.94 16965.3484
1917.9 16965.8484
1919.84 16966.3445
1921.79 16966.8328
1923.74 16967.3191
1925.69 16967.8172
1927.63 16968.3016
1929.58 16968.7996
1931.52 16969.284
1933.46 16969.7801
1935.41 16970.2684
1937.35 16970.7527
1939.3 16971.2508
1941.24 16971.7371
1943.19 16972.2352
1945.13 16972.7195
1947.06 16973.2117
1949.01 16973.7
1950.95 16974.1844
1952.89 16974.6805
1954.83 16975.1648
1956.77 16975.6609
1958.71 16976.1453
1960.64 16976.6395
1962.59 16977.1277
1964.52 16977.6102
1966.46 16978.1043
1968.4 16978.5887
1970.33 16979.0848
1972.26 16979.5652
1974.21 16980.0633
1976.14 16980.5457
1978.07 16981.0398
1980.01 16981.5262
1981.94 16982.0086
1983.88 16982.5027
1985.81 16982.9871
1987.74 16983.4793
1989.66 16983.9578
1991.6 16984.4461
1993.53 16984.9383
1995.46 16985.4207
1997.39 16985.915
1999.32 16986.3973
2001.25 16986.8895
2003.18 16987.372
2005.11 16987.8543
2007.03 16988.346
2008.96 16988.829
2010.89 16989.3113
2012.81 16989.802
2014.73 16990.284
2016.67 16990.778
2018.59 16991.259
2020.51 16991.7391
2022.43 16992.229
2024.36 16992.714
2026.28 16993.204
2028.2 16993.686
2030.12 16994.175
2032.05 16994.657
2033.97 16995.138
2035.89 16995.63
2037.8 16996.108
2039.73 16996.6
2041.65 16997.081
2043.57 16997.561
2045.48 16998.05
2047.41 16998.532
2049.32 16999.011
2051.24 16999.501
2053.15 16999.979
2055.07 17000.47
2056.99 17000.952
2058.9 17001.429
2060.82 17001.919
2062.73 17002.397
2064.64 17002.888
2066.55 17003.364
2068.47 17003.845
2070.38 17004.333
2072.29 17004.813
2074.2 17005.2898
2076.11 17005.776
2078.02 17006.257
2079.94 17006.747
2081.85 17007.225
2083.76 17007.704
2085.66 17008.19
2087.57 17008.667
2089.48 17009.145
2091.38 17009.632
2093.29 17010.11
2095.21 17010.5906
2097.11 17011.077
2099.02 17011.5535
2100.92 17012.042
2102.82 17012.5164
2104.73 17012.995
2106.63 17013.4812
2108.53 17013.956
2110.43 17014.4324
2112.34 17014.9188
2114.25 17015.399
2116.15 17015.876
2118.05 17016.3602
2119.95 17016.8367
2121.85 17017.3113
2123.75 17017.7977
2125.65 17018.2742
2127.54 17018.7566
2129.44 17019.2352
2131.34 17019.7176
2133.24 17020.1961
2135.13 17020.6688
2137.03 17021.1551
2138.93 17021.6316
2140.82 17022.1043
2142.72 17022.5809
2144.61 17023.0633
2146.51 17023.5398
2148.4 17024.0223
2150.29 17024.4969
2152.18 17024.9715
2154.08 17025.4539
2155.97 17025.9305
2157.86 17026.4109
2159.75 17026.8875
2161.64 17027.3621
2163.53 17027.8348
2165.43 17028.3191
2167.32 17028.7938
2169.2 17029.2645
2171.09 17029.7488
2172.98 17030.2215
2174.87 17030.6941
2176.76 17031.1785
2178.65 17031.6531
2180.53 17032.1219
2182.42 17032.6082
2184.31 17033.0789
2186.19 17033.5613
2188.08 17034.0359
2189.96 17034.5066
2191.83 17034.9852
2193.72 17035.4598
2195.6 17035.9305
2197.49 17036.4051
2199.37 17036.8836
2201.25 17037.35625
2203.13 17037.82695
2205.02 17038.31133
2206.9 17038.784
2208.78 17039.25273
2210.66 17039.7352
2212.53 17040.20195
2214.41 17040.6746
2216.29 17041.1551
2218.17 17041.6277
2220.04 17042.0965
2221.92 17042.5789
2223.81 17043.0516
